611.05957031	2.49019599
611.05957031	2.47058821
611.06353760	2.47058821
611.06781006	2.52941179
611.07159424	2.54901958
611.07604980	2.50980401
611.08013916	2.49019599
611.08013916	2.49019599
611.08410645	2.50980401
611.08825684	2.52941179
611.09234619	2.56862736
611.09234619	2.54901958
611.09631348	2.50980401
611.10046387	2.49019599
611.10461426	2.49019599
611.10461426	2.49019599
611.10864258	2.52941179
611.11279297	2.52941179
611.11700439	2.47058821
611.12127686	2.45098042
611.12548828	2.47058821
611.12548828	2.49019599
611.12902832	2.54901958
611.13323975	2.49019599
611.13714600	2.47058821
611.13714600	2.45098042
611.14147949	2.43137264
611.14556885	2.45098042
611.14953613	2.49019599
611.14953613	2.50980401
611.15350342	2.50980401
611.15777588	2.47058821
611.16217041	2.45098042
611.16589355	2.47058821
611.17004395	2.52941179
611.17004395	2.52941179
611.17431641	2.54901958
611.17828369	2.50980401
611.18237305	2.49019599
611.18237305	2.47058821
611.18658447	2.47058821
611.19055176	2.50980401
611.19470215	2.52941179
611.19470215	2.50980401
611.19860840	2.47058821
611.20275879	2.45098042
611.20715332	2.47058821
611.21093750	2.47058821
611.21539307	2.49019599
611.21539307	2.45098042
611.21911621	2.41176462
611.22351074	2.39215684
611.22753906	2.41176462
611.22753906	2.45098042
611.23144531	2.43137264
611.23559570	2.43137264
611.23962402	2.41176462
611.23962402	2.41176462
611.24383545	2.41176462
611.24798584	2.39215684
611.25207520	2.45098042
611.25610352	2.43137264
611.26025391	2.41176462
611.26025391	2.39215684
611.26422119	2.41176462
611.26843262	2.45098042
611.27246094	2.45098042
611.27246094	2.49019599
611.27667236	2.47058821
611.28070068	2.45098042
611.28491211	2.47058821
611.28491211	2.49019599
611.28881836	2.50980401
611.29296875	2.50980401
611.29711914	2.49019599
611.30151367	2.47058821
611.30566406	2.45098042
611.30566406	2.45098042
611.30969238	2.47058821
611.31341553	2.50980401
611.31756592	2.49019599
611.31756592	2.45098042
611.32177734	2.45098042
611.32598877	2.47058821
611.33001709	2.52941179
611.33001709	2.52941179
611.33404541	2.49019599
611.33825684	2.45098042
611.34240723	2.43137264
611.34637451	2.43137264
611.35046387	2.43137264
611.35046387	2.41176462
611.35473633	2.39215684
611.35845947	2.29411769
611.36273193	2.23529410
611.36273193	2.19607854
611.36676025	2.21568632
611.37078857	2.25490189
611.37518311	2.31372547
611.37518311	2.37254906
611.37902832	2.41176462
611.38305664	2.54901958
611.38305664	2.70588231
611.38745117	2.84313726
611.39141846	2.90196085
611.39556885	2.92156863
611.39556885	2.86274505
611.39953613	2.86274505
611.40368652	2.78431368
611.40765381	2.76470590
611.40765381	2.70588231
611.41174316	2.66666675
611.41577148	2.60784316
611.42004395	2.52941179
611.42004395	2.47058821
611.42401123	2.41176462
611.42816162	2.43137264
611.42816162	2.43137264
611.43218994	2.41176462
611.43634033	2.37254906
611.44042969	2.35294127
611.44042969	2.35294127
611.44458008	2.33333325
611.44866943	2.37254906
611.45275879	2.37254906
611.45275879	2.39215684
611.45690918	2.35294127
611.46105957	2.31372547
611.46520996	2.31372547
611.46520996	2.33333325
611.46917725	2.35294127
611.47326660	2.37254906
611.47326660	2.35294127
611.47735596	2.29411769
611.48132324	2.29411769
611.48571777	2.25490189
611.48571777	2.29411769
611.48999023	2.33333325
611.49407959	2.37254906
611.49804688	2.33333325
611.49804688	2.27450991
611.50292969	2.25490189
611.50598145	2.27450991
611.51031494	2.29411769
611.51031494	2.31372547
611.51446533	2.27450991
611.51837158	2.23529410
611.51837158	2.19607854
611.52258301	2.15686274
611.52655029	2.17647052
611.53076172	2.21568632
611.53076172	2.25490189
611.53497314	2.21568632
611.53918457	2.17647052
611.54321289	2.13725495
611.54321289	2.17647052
611.54711914	2.19607854
611.55126953	2.23529410
611.55523682	2.23529410
611.55914307	2.21568632
611.56329346	2.19607854
611.56329346	2.21568632
611.56756592	2.27450991
611.57141113	2.33333325
611.57580566	2.35294127
611.57580566	2.31372547
611.57995605	2.31372547
611.58410645	2.31372547
611.58831787	2.37254906
611.58831787	2.41176462
611.59216309	2.47058821
611.59625244	2.45098042
611.60028076	2.41176462
611.60443115	2.43137264
611.60852051	2.47058821
611.60852051	2.50980401
611.61254883	2.54901958
611.61676025	2.52941179
611.62054443	2.49019599
611.62054443	2.49019599
611.62457275	2.49019599
611.62884521	2.50980401
611.63330078	2.54901958
611.63330078	2.58823538
611.63720703	2.54901958
611.64123535	2.50980401
611.64520264	2.52941179
611.64935303	2.56862736
611.65344238	2.54901958
611.65344238	2.52941179
611.65771484	2.50980401
611.66180420	2.50980401
611.66571045	2.50980401
611.66571045	2.50980401
611.66979980	2.52941179
611.67413330	2.54901958
611.67840576	2.50980401
611.67840576	2.47058821
611.68237305	2.47058821
611.68621826	2.47058821
611.69036865	2.49019599
611.69445801	2.50980401
611.69848633	2.49019599
611.69848633	2.45098042
611.70257568	2.43137264
611.70678711	2.45098042
611.71081543	2.49019599
611.71081543	2.50980401
611.71484375	2.49019599
611.71905518	2.45098042
611.72308350	2.43137264
611.72308350	2.43137264
611.72717285	2.45098042
611.73126221	2.50980401
611.73614502	2.49019599
611.73950195	2.47058821
611.74359131	2.45098042
611.74359131	2.45098042
611.74761963	2.49019599
611.75177002	2.49019599
611.75579834	2.52941179
611.75579834	2.50980401
611.75994873	2.74509811
611.76403809	2.68627453
611.76831055	2.66666675
611.76831055	2.62745094
611.77258301	2.60784316
611.77655029	2.56862736
611.78045654	2.50980401
611.78497314	2.49019599
611.78869629	2.49019599
611.78869629	2.49019599
611.79278564	2.47058821
611.79687500	2.45098042
611.80120850	2.41176462
611.80120850	2.41176462
611.80511475	2.41176462
611.80908203	2.45098042
611.81323242	2.41176462
611.81323242	2.39215684
611.81732178	2.39215684
611.82147217	2.37254906
611.82550049	2.41176462
611.82977295	2.47058821
611.83367920	2.50980401
611.83367920	2.50980401
611.83789063	2.47058821
611.84191895	2.45098042
611.84600830	2.45098042
611.84600830	2.49019599
611.85009766	2.50980401
611.85424805	2.49019599
611.85827637	2.47058821
611.85827637	2.41176462
611.86236572	2.39215684
611.86657715	2.41176462
611.86657715	2.43137264
611.87066650	2.45098042
611.87463379	2.45098042
611.87878418	2.43137264
611.87878418	2.39215684
611.88281250	2.37254906
611.88714600	2.35294127
611.89123535	2.39215684
611.89123535	2.45098042
611.89532471	2.43137264
611.89929199	2.39215684
611.90338135	2.35294127
611.90338135	2.35294127
611.90747070	2.43137264
611.91156006	2.49019599
611.91156006	2.49019599
611.91564941	2.47058821
611.91979980	2.45098042
611.92388916	2.45098042
611.92388916	2.45098042
611.92791748	2.45098042
611.93206787	2.49019599
611.93621826	2.49019599
611.93621826	2.47058821
611.94018555	2.43137264
611.94421387	2.41176462
611.94842529	2.45098042
611.94842529	2.47058821
611.95251465	2.49019599
611.95684814	2.49019599
611.95684814	2.47058821
611.96063232	2.45098042
611.96478271	2.43137264
611.96893311	2.45098042
611.96893311	2.47058821
611.97296143	2.50980401
611.97717285	2.45098042
611.98120117	2.39215684
611.98120117	2.33333325
611.98541260	2.29411769
611.98931885	2.27450991
611.99346924	2.25490189
611.99346924	2.23529410
611.99755859	2.23529410
612.00170898	2.27450991
612.00170898	2.33333325
612.00579834	2.43137264
612.00982666	2.58823538
612.01397705	2.74509811
612.01397705	2.88235283
612.01824951	2.90196085
612.02227783	2.92156863
612.02630615	2.92156863
612.02630615	2.92156863
612.03051758	2.90196085
612.03448486	2.82352948
612.03887939	2.70588231
612.03887939	2.60784316
612.04266357	2.54901958
612.04669189	2.49019599
612.04669189	2.49019599
612.05084229	2.47058821
612.05499268	2.47058821
612.05902100	2.43137264
612.05902100	2.37254906
612.06317139	2.35294127
612.06713867	2.39215684
612.07147217	2.41176462
612.07147217	2.41176462
612.07537842	2.39215684
612.07952881	2.35294127
612.08374023	2.29411769
612.08776855	2.31372547
612.09173584	2.33333325
612.09173584	2.33333325
612.09588623	2.31372547
612.09991455	2.29411769
612.10412598	2.25490189
612.10412598	2.25490189
612.10821533	2.29411769
612.11224365	2.31372547
612.11633301	2.29411769
612.11633301	2.25490189
612.12054443	2.25490189
612.12451172	2.23529410
612.12866211	2.27450991
612.13275146	2.27450991
612.13684082	2.25490189
612.13684082	2.19607854
612.14099121	2.17647052
612.14495850	2.19607854
612.14910889	2.21568632
612.14910889	2.21568632
612.15325928	2.19607854
612.15740967	2.13725495
612.16162109	2.11764717
612.16162109	2.07843137
612.16564941	2.09803915
612.16986084	2.13725495
612.17370605	2.17647052
612.17779541	2.13725495
612.18194580	2.11764717
612.18194580	2.09803915
612.18609619	2.11764717
612.19006348	2.17647052
612.19427490	2.19607854
612.19427490	2.23529410
612.19830322	2.21568632
612.20251465	2.19607854
612.20654297	2.23529410
612.20654297	2.29411769
612.21069336	2.33333325
612.21466064	2.35294127
612.21887207	2.35294127
612.22283936	2.35294127
612.22692871	2.35294127
612.22692871	2.41176462
612.23101807	2.47058821
612.23516846	2.49019599
612.23925781	2.47058821
612.23925781	2.45098042
612.24328613	2.47058821
612.24743652	2.50980401
612.25152588	2.52941179
612.25152588	2.54901958
612.25561523	2.52941179
612.25970459	2.49019599
612.26385498	2.49019599
612.26806641	2.52941179
612.27215576	2.56862736
612.27215576	2.58823538
612.27618408	2.56862736
612.28021240	2.50980401
612.28436279	2.50980401
612.28436279	2.50980401
612.28839111	2.54901958
612.29248047	2.56862736
612.29656982	2.56862736
612.29656982	2.52941179
612.30072021	2.50980401
612.30493164	2.50980401
612.30889893	2.54901958
612.31298828	2.56862736
612.31713867	2.54901958
612.31713867	2.49019599
612.32122803	2.47058821
612.32519531	2.47058821
612.32946777	2.50980401
612.32946777	2.52941179
612.33337402	2.50980401
612.33758545	2.47058821
612.34167480	2.45098042
612.34167480	2.47058821
612.34582520	2.50980401
612.34985352	2.50980401
612.35400391	2.49019599
612.35803223	2.45098042
612.36224365	2.43137264
612.36224365	2.41176462
612.36645508	2.45098042
612.37042236	2.50980401
612.37438965	2.50980401
612.37438965	2.49019599
612.37847900	2.45098042
612.38275146	2.43137264
612.38690186	2.43137264
612.38690186	2.47058821
612.39093018	2.50980401
612.39514160	2.49019599
612.39514160	2.45098042
612.39910889	2.43137264
612.40301514	2.43137264
612.40734863	2.43137264
612.40734863	2.50980401
612.41162109	2.50980401
612.41552734	2.50980401
612.41955566	2.47058821
612.41955566	2.45098042
612.42382813	2.43137264
612.42773438	2.45098042
612.43176270	2.47058821
612.43176270	2.47058821
612.43591309	2.45098042
612.44000244	2.41176462
612.44000244	2.43137264
612.44409180	2.45098042
612.44818115	2.43137264
612.45227051	2.45098042
612.45227051	2.45098042
612.45654297	2.43137264
612.46044922	2.41176462
612.46453857	2.39215684
612.46453857	2.41176462
612.46856689	2.43137264
612.47290039	2.45098042
612.47680664	2.45098042
612.47680664	2.43137264
612.48089600	2.43137264
612.48504639	2.41176462
612.48504639	2.43137264
612.48937988	2.43137264
612.49322510	2.45098042
612.49731445	2.43137264
612.49731445	2.41176462
612.50140381	2.39215684
612.50543213	2.39215684
612.50958252	2.41176462
612.50958252	2.45098042
612.51367188	2.43137264
612.51776123	2.43137264
612.52215576	2.41176462
612.52215576	2.37254906
612.52600098	2.39215684
612.53009033	2.43137264
612.53009033	2.43137264
612.53430176	2.43137264
612.53833008	2.41176462
612.54248047	2.39215684
612.54248047	2.39215684
612.54638672	2.39215684
612.55053711	2.41176462
612.55480957	2.45098042
612.55480957	2.43137264
612.55871582	2.39215684
612.56292725	2.37254906
612.56707764	2.37254906
612.57116699	2.43137264
612.57519531	2.45098042
612.57519531	2.41176462
612.57922363	2.41176462
612.58325195	2.39215684
612.58752441	2.41176462
612.58752441	2.45098042
612.59155273	2.47058821
612.59558105	2.47058821
612.59973145	2.41176462
612.59973145	2.41176462
612.60382080	2.39215684
612.60791016	2.41176462
612.61199951	2.45098042
612.61608887	2.43137264
612.62036133	2.39215684
612.62036133	2.39215684
612.62426758	2.37254906
612.62835693	2.43137264
612.63250732	2.43137264
612.63250732	2.43137264
612.63665771	2.41176462
612.64068604	2.37254906
612.64477539	2.35294127
612.64477539	2.39215684
612.64892578	2.43137264
612.65295410	2.43137264
612.65722656	2.39215684
612.66131592	2.37254906
612.66528320	2.37254906
612.66528320	2.37254906
612.66949463	2.41176462
612.67340088	2.41176462
612.67755127	2.41176462
612.67755127	2.37254906
612.68164063	2.35294127
612.68579102	2.37254906
612.68994141	2.39215684
612.68994141	2.41176462
612.69390869	2.41176462
612.69799805	2.37254906
612.70220947	2.35294127
612.70648193	2.39215684
612.71044922	2.43137264
612.71044922	2.45098042
612.71441650	2.41176462
612.71862793	2.35294127
612.72259521	2.35294127
612.72259521	2.35294127
612.72668457	2.37254906
612.73077393	2.39215684
612.73492432	2.39215684
612.73492432	2.37254906
612.73901367	2.33333325
612.74310303	2.35294127
612.74719238	2.41176462
612.75122070	2.43137264
612.75531006	2.43137264
612.75531006	2.41176462
612.75946045	2.35294127
612.76354980	2.33333325
612.76794434	2.35294127
612.76794434	2.39215684
612.77172852	2.41176462
612.77587891	2.39215684
612.78002930	2.37254906
612.78002930	2.35294127
612.78399658	2.37254906
612.78869629	2.39215684
612.79229736	2.43137264
612.79650879	2.43137264
612.80047607	2.37254906
612.80047607	2.37254906
612.80468750	2.39215684
612.80877686	2.43137264
612.81286621	2.41176462
612.81286621	2.43137264
612.81677246	2.39215684
612.82098389	2.35294127
612.82501221	2.37254906
612.82501221	2.39215684
612.82910156	2.41176462
612.83325195	2.41176462
612.83746338	2.39215684
612.84136963	2.39215684
612.84552002	2.37254906
612.84552002	2.37254906
612.84954834	2.41176462
612.85369873	2.41176462
612.85778809	2.39215684
612.85778809	2.39215684
612.86187744	2.37254906
612.86602783	2.37254906
612.87023926	2.39215684
612.87023926	2.41176462
612.87426758	2.41176462
612.87829590	2.39215684
612.87829590	2.35294127
612.88232422	2.35294127
612.88653564	2.37254906
612.89056396	2.43137264
612.89056396	2.43137264
612.89465332	2.41176462
612.89880371	2.37254906
612.90295410	2.33333325
612.90295410	2.33333325
612.90704346	2.37254906
612.91101074	2.37254906
612.91516113	2.39215684
612.91516113	2.39215684
612.91955566	2.33333325
612.92327881	2.33333325
612.92327881	2.39215684
612.92749023	2.41176462
612.93157959	2.43137264
612.93566895	2.39215684
612.93566895	2.33333325
612.93975830	2.33333325
612.94390869	2.33333325
612.94793701	2.35294127
612.94793701	2.33333325
612.95202637	2.35294127
612.95611572	2.33333325
612.96020508	2.31372547
612.96020508	2.31372547
612.96429443	2.31372547
612.96850586	2.33333325
612.96850586	2.33333325
612.97247314	2.33333325
612.97656250	2.31372547
612.98065186	2.29411769
612.98065186	2.27450991
612.98486328	2.27450991
612.98889160	2.29411769
612.99298096	2.33333325
612.99298096	2.31372547
612.99707031	2.29411769
613.00128174	2.27450991
613.00524902	2.29411769
613.00524902	2.29411769
613.00933838	2.33333325
613.01354980	2.33333325
613.01354980	2.29411769
613.01794434	2.29411769
613.02160645	2.31372547
613.02587891	2.35294127
613.02587891	2.35294127
613.02984619	2.37254906
613.03393555	2.37254906
613.03820801	2.35294127
613.03820801	2.35294127
613.04211426	2.35294127
613.04632568	2.39215684
613.05041504	2.43137264
613.05041504	2.43137264
613.05444336	2.43137264
613.05847168	2.39215684
613.05847168	2.37254906
613.06280518	2.39215684
613.06677246	2.43137264
613.07098389	2.47058821
613.07098389	2.45098042
613.07495117	2.45098042
613.07928467	2.39215684
613.08319092	2.35294127
613.08319092	2.35294127
613.08734131	2.35294127
613.09130859	2.35294127
613.09539795	2.27450991
613.09954834	2.19607854
613.10363770	2.17647052
613.10363770	2.21568632
613.10766602	2.31372547
613.11175537	2.39215684
613.11584473	2.47058821
613.11584473	2.52941179
613.12005615	2.64705873
613.12402344	2.78431368
613.12817383	2.86274505
613.12817383	2.90196085
613.13220215	2.90196085
613.13647461	2.84313726
613.14056396	2.64705873
613.14465332	2.60784316
613.14880371	2.56862736
613.14880371	2.54901958
613.15277100	2.52941179
613.15686035	2.45098042
613.16088867	2.39215684
613.16088867	2.39215684
613.16516113	2.39215684
613.16949463	2.37254906
613.17327881	2.37254906
613.17327881	2.35294127
613.17730713	2.31372547
613.18151855	2.29411769
613.18554688	2.31372547
613.19018555	2.33333325
613.19366455	2.37254906
613.19366455	2.35294127
613.19769287	2.31372547
613.20202637	2.31372547
613.20629883	2.31372547
613.20629883	2.33333325
613.21038818	2.35294127
613.21417236	2.35294127
613.21820068	2.29411769
613.21820068	2.25490189
613.22241211	2.23529410
613.22644043	2.23529410
613.23052979	2.31372547
613.23455811	2.31372547
613.23883057	2.27450991
613.23883057	2.19607854
613.24285889	2.17647052
613.24688721	2.19607854
613.25115967	2.23529410
613.25115967	2.25490189
613.25512695	2.21568632
613.25927734	2.15686274
613.26336670	2.13725495
613.26336670	2.13725495
613.26757813	2.17647052
613.27160645	2.21568632
613.27557373	2.17647052
613.27984619	2.09803915
613.28381348	2.09803915
613.28381348	2.11764717
613.28790283	2.15686274
613.29205322	2.15686274
613.29608154	2.13725495
613.29608154	2.09803915
613.30023193	2.11764717
613.30438232	2.15686274
613.30853271	2.19607854
613.30853271	2.23529410
613.31280518	2.23529410
613.31658936	2.21568632
613.32073975	2.21568632
613.32482910	2.21568632
613.32885742	2.29411769
613.32885742	2.31372547
613.33306885	2.31372547
613.33715820	2.33333325
613.34118652	2.31372547
613.34118652	2.33333325
613.34521484	2.35294127
613.34936523	2.41176462
613.35351563	2.43137264
613.35351563	2.41176462
613.35797119	2.39215684
613.36163330	2.37254906
613.36572266	2.41176462
613.36999512	2.45098042
613.37414551	2.47058821
613.37414551	2.47058821
613.37799072	2.39215684
613.38220215	2.41176462
613.38635254	2.43137264
613.38635254	2.45098042
613.39080811	2.47058821
613.39471436	2.45098042
613.39874268	2.45098042
613.39874268	2.43137264
613.40264893	2.41176462
613.40698242	2.41176462
613.40698242	2.47058821
613.41094971	2.49019599
613.41510010	2.47058821
613.41900635	2.43137264
613.41900635	2.39215684
613.42340088	2.39215684
613.42755127	2.41176462
613.43127441	2.43137264
613.43127441	2.43137264
613.43548584	2.43137264
613.43951416	2.37254906
613.44366455	2.37254906
613.44366455	2.41176462
613.44763184	2.45098042
613.45178223	2.47058821
613.45178223	2.45098042
613.45593262	2.39215684
613.46002197	2.35294127
613.46398926	2.37254906
613.46398926	2.39215684
613.46832275	2.45098042
613.47222900	2.45098042
613.47631836	2.41176462
613.47631836	2.37254906
613.48040771	2.35294127
613.48455811	2.39215684
613.48864746	2.41176462
613.48864746	2.45098042
613.49267578	2.43137264
613.49682617	2.41176462
613.49682617	2.37254906
613.50097656	2.37254906
613.50500488	2.39215684
613.50909424	2.41176462
613.50909424	2.45098042
613.51330566	2.47058821
613.51739502	2.43137264
613.52148438	2.41176462
613.52148438	2.39215684
613.52569580	2.43137264
613.52960205	2.45098042
613.53375244	2.45098042
613.53375244	2.43137264
613.53784180	2.41176462
613.54193115	2.41176462
613.54193115	2.43137264
613.54589844	2.45098042
613.55010986	2.45098042
613.55432129	2.47058821
613.55432129	2.45098042
613.55828857	2.41176462
613.56256104	2.41176462
613.56652832	2.41176462
613.56652832	2.43137264
613.57067871	2.45098042
613.57470703	2.43137264
613.57879639	2.39215684
613.58306885	2.41176462
613.58703613	2.43137264
613.58703613	2.43137264
613.59112549	2.47058821
613.59521484	2.43137264
613.59924316	2.39215684
613.59924316	2.37254906
613.60333252	2.39215684
613.60742188	2.43137264
613.61151123	2.45098042
613.61151123	2.47058821
613.61566162	2.45098042
613.61987305	2.41176462
613.62377930	2.39215684
613.62792969	2.41176462
613.63195801	2.43137264
613.63195801	2.45098042
613.63616943	2.41176462
613.64025879	2.37254906
613.64422607	2.39215684
613.64422607	2.39215684
613.64831543	2.43137264
613.65258789	2.43137264
613.65661621	2.43137264
613.65661621	2.39215684
613.66082764	2.37254906
613.66485596	2.39215684
613.66900635	2.45098042
613.67291260	2.45098042
613.67700195	2.45098042
613.67700195	2.41176462
613.68121338	2.39215684
613.68536377	2.39215684
613.68951416	2.45098042
613.68951416	2.45098042
613.69342041	2.45098042
613.69750977	2.41176462
613.70172119	2.37254906
613.70172119	2.35294127
613.70568848	2.39215684
613.70983887	2.43137264
613.71392822	2.45098042
613.71826172	2.43137264
613.72222900	2.39215684
613.72222900	2.37254906
613.72619629	2.41176462
613.73034668	2.43137264
613.73443604	2.47058821
613.73443604	2.45098042
613.73852539	2.39215684
613.74255371	2.35294127
613.74670410	2.37254906
613.74670410	2.39215684
613.75085449	2.43137264
613.75482178	2.43137264
613.75903320	2.37254906
613.76318359	2.37254906
613.76715088	2.39215684
613.76715088	2.41176462
613.77136230	2.45098042
613.77539063	2.45098042
613.77954102	2.43137264
613.77954102	2.39215684
613.78387451	2.41176462
613.78784180	2.43137264
613.79199219	2.41176462
613.79199219	2.45098042
613.79595947	2.41176462
613.79998779	2.39215684
613.80413818	2.41176462
613.80834961	2.43137264
613.81243896	2.43137264
613.81243896	2.47058821
613.81658936	2.43137264
613.82049561	2.41176462
613.82464600	2.43137264
613.82464600	2.45098042
613.82885742	2.49019599
613.83300781	2.50980401
613.83697510	2.50980401
613.83697510	2.43137264
613.84088135	2.39215684
613.84521484	2.39215684
613.84924316	2.49019599
613.85363770	2.50980401
613.85754395	2.50980401
613.85754395	2.47058821
613.86157227	2.43137264
613.86560059	2.43137264
613.86956787	2.49019599
613.86956787	2.50980401
613.87359619	2.52941179
613.87768555	2.45098042
613.88201904	2.45098042
613.88201904	2.43137264
613.88598633	2.45098042
613.89001465	2.47058821
613.89001465	2.50980401
613.89416504	2.50980401
613.89831543	2.47058821
613.90246582	2.45098042
613.90246582	2.43137264
613.90643311	2.47058821
613.91046143	2.52941179
613.91479492	2.52941179
613.91479492	2.49019599
613.91918945	2.43137264
613.92272949	2.39215684
613.92700195	2.41176462
613.92700195	2.47058821
613.93096924	2.50980401
613.93518066	2.50980401
613.93518066	2.47058821
613.93920898	2.43137264
613.94323730	2.39215684
613.94738770	2.39215684
613.94738770	2.45098042
613.95166016	2.49019599
613.95556641	2.49019599
613.95965576	2.45098042
613.95965576	2.41176462
613.96508789	2.39215684
613.96826172	2.43137264
613.97192383	2.43137264
613.97192383	2.45098042
613.97601318	2.43137264
613.98022461	2.37254906
613.98022461	2.37254906
613.98437500	2.39215684
613.98840332	2.45098042
613.99249268	2.45098042
613.99249268	2.45098042
613.99652100	2.39215684
614.00073242	2.37254906
614.00494385	2.35294127
614.00494385	2.39215684
614.00878906	2.43137264
614.01287842	2.45098042
614.01696777	2.43137264
614.01696777	2.39215684
614.02124023	2.33333325
614.02539063	2.33333325
614.02539063	2.37254906
614.02941895	2.41176462
614.03338623	2.43137264
614.03778076	2.39215684
614.03778076	2.35294127
614.04156494	2.35294127
614.04571533	2.37254906
614.04986572	2.41176462
614.04986572	2.41176462
614.05401611	2.41176462
614.05816650	2.39215684
614.06231689	2.37254906
614.06231689	2.39215684
614.06622314	2.41176462
614.07049561	2.47058821
614.07049561	2.49019599
614.07464600	2.49019599
614.07849121	2.45098042
614.08258057	2.43137264
614.08258057	2.45098042
614.08679199	2.49019599
614.09082031	2.50980401
614.09490967	2.50980401
614.09490967	2.50980401
614.09899902	2.47058821
614.10308838	2.45098042
614.10717773	2.49019599
614.11126709	2.50980401
614.11535645	2.47058821
614.11535645	2.41176462
614.11968994	2.37254906
614.12365723	2.33333325
614.12768555	2.29411769
614.12768555	2.27450991
614.13171387	2.25490189
614.13592529	2.25490189
614.13995361	2.25490189
614.13995361	2.29411769
614.14398193	2.35294127
614.14825439	2.43137264
614.15234375	2.74509811
614.15637207	2.86274505
614.16052246	2.86274505
614.16052246	2.90196085
614.16467285	2.88235283
614.16882324	2.86274505
614.17272949	2.84313726
614.17272949	2.76470590
614.17694092	2.66666675
614.18090820	2.58823538
614.18518066	2.52941179
614.18518066	2.49019599
614.18939209	2.47058821
614.19317627	2.45098042
614.19732666	2.41176462
614.20147705	2.39215684
614.20544434	2.37254906
614.20544434	2.37254906
614.20971680	2.37254906
614.21386719	2.35294127
614.21777344	2.31372547
614.21777344	2.29411769
614.22192383	2.31372547
614.22589111	2.31372547
614.23004150	2.35294127
614.23004150	2.35294127
614.23437500	2.33333325
614.23834229	2.33333325
614.24237061	2.29411769
614.24639893	2.29411769
614.25067139	2.29411769
614.25067139	2.29411769
614.25463867	2.29411769
614.25872803	2.27450991
614.26287842	2.27450991
614.26287842	2.29411769
614.26702881	2.29411769
614.27117920	2.29411769
614.27532959	2.29411769
614.27532959	2.25490189
614.27917480	2.21568632
614.28326416	2.21568632
614.28741455	2.23529410
614.29162598	2.23529410
614.29565430	2.21568632
614.29565430	2.15686274
614.29974365	2.11764717
614.30389404	2.13725495
614.30792236	2.15686274
614.30792236	2.19607854
614.31225586	2.17647052
614.31610107	2.13725495
614.32025146	2.11764717
614.32025146	2.09803915
614.32452393	2.13725495
614.32843018	2.19607854
614.33245850	2.23529410
614.33685303	2.19607854
614.34075928	2.19607854
614.34075928	2.21568632
614.34472656	2.23529410
614.34881592	2.29411769
614.35308838	2.31372547
614.35308838	2.35294127
614.35711670	2.31372547
614.36120605	2.29411769
614.36529541	2.31372547
614.36529541	2.37254906
614.36956787	2.39215684
614.37341309	2.43137264
614.37756348	2.43137264
614.38159180	2.43137264
614.38580322	2.43137264
614.38580322	2.45098042
614.39013672	2.49019599
614.39410400	2.50980401
614.39813232	2.50980401
614.39813232	2.49019599
614.40234375	2.45098042
614.40618896	2.45098042
614.41027832	2.50980401
614.41027832	2.56862736
614.41448975	2.60784316
614.41857910	2.54901958
614.41857910	2.50980401
614.42260742	2.49019599
614.42669678	2.49019599
614.43090820	2.56862736
614.43090820	2.62745094
614.43487549	2.62745094
614.43933105	2.54901958
614.44329834	2.50980401
614.44329834	2.50980401
614.44738770	2.54901958
614.45135498	2.58823538
614.45574951	2.60784316
614.45574951	2.56862736
614.45971680	2.49019599
614.46368408	2.47058821
614.46368408	2.49019599
614.46795654	2.52941179
614.47180176	2.54901958
614.47589111	2.56862736
614.47589111	2.52941179
614.47991943	2.49019599
614.48413086	2.47058821
614.48840332	2.47058821
614.48840332	2.52941179
614.49218750	2.56862736
614.49652100	2.54901958
614.50085449	2.50980401
614.50085449	2.45098042
614.50482178	2.47058821
614.50854492	2.49019599
614.50854492	2.52941179
614.51269531	2.54901958
614.51672363	2.52941179
614.52117920	2.50980401
614.52117920	2.47058821
614.52496338	2.49019599
614.52899170	2.52941179
614.53314209	2.54901958
614.53314209	2.54901958
614.53735352	2.52941179
614.54132080	2.50980401
614.54547119	2.49019599
614.54547119	2.49019599
614.54949951	2.50980401
614.55377197	2.54901958
614.55377197	2.54901958
614.55767822	2.50980401
614.56213379	2.49019599
614.56604004	2.49019599
614.56604004	2.52941179
614.57006836	2.56862736
614.57421875	2.56862736
614.57818604	2.52941179
614.57818604	2.50980401
614.58221436	2.49019599
614.58648682	2.50980401
614.59057617	2.52941179
614.59057617	2.54901958
614.59460449	2.56862736
614.59875488	2.52941179
614.59875488	2.50980401
614.60284424	2.52941179
614.60693359	2.50980401
614.61102295	2.54901958
614.61102295	2.54901958
614.61505127	2.54901958
614.61950684	2.50980401
614.62335205	2.50980401
614.62335205	2.50980401
614.62738037	2.52941179
614.63140869	2.56862736
614.63568115	2.54901958
614.63970947	2.50980401
614.64404297	2.49019599
614.64404297	2.49019599
614.64794922	2.52941179
614.65209961	2.50980401
614.65612793	2.52941179
614.65612793	2.52941179
614.66015625	2.50980401
614.66442871	2.49019599
614.66912842	2.49019599
614.66912842	2.50980401
614.67242432	2.50980401
614.67651367	2.49019599
614.68066406	2.47058821
614.68481445	2.49019599
614.68902588	2.50980401
614.68902588	2.50980401
614.69299316	2.50980401
614.69696045	2.47058821
614.70135498	2.45098042
614.70135498	2.43137264
614.70520020	2.45098042
614.70928955	2.49019599
614.71343994	2.50980401
614.71343994	2.49019599
614.71765137	2.45098042
614.72167969	2.45098042
614.72570801	2.43137264
614.72979736	2.49019599
614.73400879	2.50980401
614.73400879	2.49019599
614.73809814	2.43137264
614.74212646	2.41176462
614.74621582	2.41176462
614.74621582	2.41176462
614.75036621	2.43137264
614.75433350	2.47058821
614.75848389	2.49019599
614.75848389	2.43137264
614.76257324	2.39215684
614.76678467	2.39215684
614.77075195	2.45098042
614.77484131	2.43137264
614.77899170	2.41176462
614.77899170	2.39215684
614.78314209	2.39215684
614.78729248	2.43137264
614.79132080	2.45098042
614.79132080	2.45098042
614.79534912	2.43137264
614.79937744	2.39215684
614.80364990	2.41176462
614.80364990	2.43137264
614.80761719	2.47058821
614.81201172	2.50980401
614.81579590	2.49019599
614.82000732	2.47058821
614.82397461	2.47058821
614.82397461	2.49019599
614.82830811	2.54901958
614.83215332	2.56862736
614.83660889	2.56862736
614.83660889	2.49019599
614.84039307	2.50980401
614.84454346	2.49019599
614.84863281	2.52941179
614.84863281	2.58823538
614.85278320	2.58823538
614.85693359	2.52941179
614.86090088	2.50980401
614.86499023	2.50980401
614.86944580	2.50980401
614.86944580	2.50980401
614.87322998	2.45098042
614.87725830	2.39215684
614.88140869	2.33333325
614.88140869	2.27450991
614.88562012	2.23529410
614.88952637	2.25490189
614.89361572	2.29411769
614.89361572	2.35294127
614.89782715	2.41176462
614.90222168	2.47058821
614.90594482	2.76470590
614.90997314	2.92156863
614.91418457	3.00000000
614.91418457	3.05882359
614.91906738	3.00000000
614.92236328	2.96078420
614.92651367	2.88235283
614.92651367	2.82352948
614.93048096	2.76470590
614.93457031	2.72549009
614.93878174	2.62745094
614.93878174	2.54901958
614.94274902	2.52941179
614.94696045	2.49019599
614.94696045	2.47058821
614.95141602	2.47058821
614.95513916	2.47058821
614.95922852	2.43137264
614.95922852	2.39215684
614.96331787	2.37254906
614.96740723	2.39215684
614.97155762	2.41176462
614.97155762	2.45098042
614.97558594	2.43137264
614.97961426	2.39215684
614.98388672	2.37254906
614.98388672	2.39215684
614.98797607	2.43137264
614.99194336	2.43137264
614.99194336	2.41176462
614.99603271	2.39215684
615.00018311	2.35294127
615.00421143	2.35294127
615.00421143	2.35294127
615.00830078	2.37254906
615.01251221	2.39215684
615.01672363	2.39215684
615.01672363	2.33333325
615.02069092	2.31372547
615.02478027	2.31372547
615.02886963	2.33333325
615.02886963	2.35294127
615.03308105	2.35294127
615.03717041	2.31372547
615.03717041	2.27450991
615.04119873	2.25490189
615.04516602	2.25490189
615.04937744	2.27450991
615.04937744	2.27450991
615.05352783	2.27450991
615.05749512	2.21568632
615.06182861	2.17647052
615.06182861	2.17647052
615.06604004	2.17647052
615.07049561	2.23529410
615.07397461	2.25490189
615.07397461	2.21568632
615.07836914	2.21568632
615.08251953	2.19607854
615.08251953	2.21568632
615.08648682	2.25490189
615.09033203	2.29411769
615.09448242	2.31372547
615.09448242	2.31372547
615.09844971	2.29411769
615.10260010	2.31372547
615.10668945	2.35294127
615.10668945	2.39215684
615.11077881	2.43137264
615.11486816	2.47058821
615.11932373	2.50980401
615.12304688	2.50980401
615.12719727	2.50980401
615.12719727	2.54901958
615.13122559	2.56862736
615.13537598	2.58823538
615.13958740	2.58823538
615.13958740	2.58823538
615.14355469	2.62745094
615.14764404	2.66666675
615.15197754	2.66666675
615.15197754	2.68627453
615.15588379	2.66666675
615.16009521	2.60784316
615.16406250	2.64705873
615.16851807	2.68627453
615.17230225	2.70588231
615.17230225	2.72549009
615.17639160	2.66666675
615.18048096	2.62745094
615.18450928	2.60784316
615.18450928	2.62745094
615.18902588	2.68627453
615.19287109	2.70588231
615.19714355	2.68627453
615.19714355	2.62745094
615.20147705	2.60784316
615.20501709	2.60784316
615.20922852	2.64705873
615.21319580	2.66666675
615.21740723	2.66666675
615.21740723	2.62745094
615.22143555	2.58823538
615.22540283	2.56862736
615.22955322	2.60784316
615.22955322	2.62745094
615.23358154	2.62745094
615.23785400	2.58823538
615.24188232	2.58823538
615.24188232	2.56862736
615.24597168	2.56862736
615.25000000	2.58823538
615.25415039	2.60784316
615.25823975	2.56862736
615.26239014	2.54901958
615.26239014	2.54901958
615.26654053	2.58823538
615.27056885	2.62745094
615.27459717	2.60784316
615.27459717	2.56862736
615.27874756	2.52941179
615.28289795	2.52941179
615.28698730	2.52941179
615.28698730	2.56862736
615.29113770	2.62745094
615.29522705	2.60784316
615.29925537	2.52941179
615.30340576	2.50980401
615.30749512	2.52941179
615.30749512	2.56862736
615.31146240	2.58823538
615.31567383	2.56862736
615.31976318	2.54901958
615.31976318	2.50980401
615.32379150	2.52941179
615.32794189	2.54901958
615.33203125	2.56862736
615.33203125	2.58823538
615.33685303	2.52941179
615.34020996	2.49019599
615.34429932	2.52941179
615.34832764	2.54901958
615.35253906	2.54901958
615.35253906	2.50980401
615.35656738	2.49019599
615.36065674	2.47058821
615.36474609	2.49019599
615.36474609	2.49019599
615.36920166	2.50980401
615.37298584	2.50980401
615.37701416	2.49019599
615.37701416	2.47058821
615.38116455	2.45098042
615.38531494	2.47058821
615.38928223	2.47058821
615.39343262	2.49019599
615.39764404	2.49019599
615.39764404	2.43137264
615.40173340	2.43137264
615.40563965	2.43137264
615.40979004	2.43137264
615.40979004	2.45098042
615.41387939	2.43137264
615.41821289	2.41176462
615.42211914	2.39215684
615.42211914	2.39215684
615.42620850	2.41176462
615.43023682	2.43137264
615.43023682	2.47058821
615.43438721	2.45098042
615.43853760	2.45098042
615.44262695	2.45098042
615.44262695	2.47058821
615.44659424	2.49019599
615.45086670	2.50980401
615.45489502	2.50980401
615.45489502	2.50980401
615.45892334	2.49019599
615.46301270	2.49019599
615.46728516	2.50980401
615.46728516	2.50980401
615.47131348	2.50980401
615.47540283	2.54901958
615.47540283	2.52941179
615.47943115	2.49019599
615.48352051	2.50980401
615.48773193	2.50980401
615.48773193	2.50980401
615.49169922	2.50980401
615.49578857	2.52941179
615.49987793	2.49019599
615.49987793	2.49019599
615.50408936	2.45098042
615.50836182	2.41176462
615.51251221	2.37254906
615.51251221	2.33333325
615.51647949	2.29411769
615.52062988	2.25490189
615.52062988	2.25490189
615.52459717	2.29411769
615.52868652	2.39215684
615.53277588	2.47058821
615.53277588	2.62745094
615.53680420	2.74509811
615.54095459	2.82352948
615.54498291	2.88235283
615.54498291	2.94117641
615.54907227	2.96078420
615.55328369	2.96078420
615.55725098	2.90196085
615.55725098	2.82352948
615.56134033	2.74509811
615.56561279	2.66666675
615.56561279	2.64705873
615.56970215	2.62745094
615.57360840	2.58823538
615.57788086	2.50980401
615.57788086	2.47058821
615.58190918	2.43137264
615.58636475	2.43137264
615.59002686	2.45098042
615.59002686	2.47058821
615.59429932	2.45098042
615.59820557	2.41176462
615.60235596	2.39215684
615.60235596	2.37254906
615.60638428	2.37254906
615.61047363	2.39215684
615.61047363	2.39215684
615.61456299	2.39215684
615.61901855	2.35294127
615.62280273	2.33333325
615.62280273	2.33333325
615.62689209	2.39215684
615.63098145	2.41176462
615.63525391	2.39215684
615.63525391	2.37254906
615.63916016	2.33333325
615.64331055	2.29411769
615.64752197	2.35294127
615.65155029	2.39215684
615.65563965	2.37254906
615.65563965	2.35294127
615.65960693	2.29411769
615.66387939	2.27450991
615.66790771	2.27450991
615.66790771	2.29411769
615.67199707	2.29411769
615.67626953	2.29411769
615.68023682	2.23529410
615.68023682	2.19607854
615.68426514	2.19607854
615.68865967	2.19607854
615.69244385	2.23529410
615.69647217	2.19607854
615.70086670	2.15686274
615.70086670	2.15686274
615.70471191	2.21568632
615.70880127	2.25490189
615.71295166	2.25490189
615.71295166	2.23529410
615.71716309	2.21568632
615.72131348	2.19607854
615.72528076	2.21568632
615.72528076	2.27450991
615.72930908	2.35294127
615.73339844	2.37254906
615.73779297	2.37254906
615.74157715	2.39215684
615.74572754	2.41176462
615.74572754	2.45098042
615.74975586	2.50980401
615.75396729	2.52941179
615.75805664	2.49019599
615.75805664	2.50980401
615.76214600	2.50980401
615.76617432	2.54901958
615.77032471	2.56862736
615.77032471	2.58823538
615.77441406	2.58823538
615.77862549	2.54901958
615.78265381	2.54901958
615.78668213	2.60784316
615.79101563	2.66666675
615.79101563	2.68627453
615.79486084	2.66666675
615.79888916	2.60784316
615.80322266	2.58823538
615.80322266	2.58823538
615.80718994	2.62745094
615.81140137	2.64705873
615.81561279	2.66666675
615.81561279	2.64705873
615.81951904	2.60784316
615.82348633	2.58823538
615.82763672	2.64705873
615.83166504	2.64705873
615.83599854	2.60784316
615.83599854	2.58823538
615.83990479	2.54901958
615.84405518	2.54901958
615.84814453	2.60784316
615.84814453	2.62745094
615.85217285	2.60784316
615.85626221	2.58823538
615.86041260	2.52941179
615.86041260	2.52941179
615.86444092	2.54901958
615.86889648	2.60784316
615.87261963	2.60784316
615.87677002	2.54901958
615.88085938	2.52941179
615.88085938	2.50980401
615.88500977	2.54901958
615.88903809	2.56862736
615.89355469	2.58823538
615.89355469	2.56862736
615.89770508	2.52941179
615.90148926	2.54901958
615.90557861	2.52941179
615.90557861	2.54901958
615.90966797	2.56862736
615.91387939	2.54901958
615.91790771	2.50980401
615.92187500	2.49019599
615.92602539	2.52941179
615.92602539	2.56862736
615.93005371	2.56862736
615.93420410	2.54901958
615.93865967	2.50980401
615.93865967	2.47058821
615.94256592	2.47058821
615.94653320	2.49019599
615.95062256	2.50980401
615.95062256	2.54901958
615.95465088	2.52941179
615.95892334	2.49019599
615.95892334	2.45098042
615.96289063	2.45098042
615.96685791	2.47058821
615.97113037	2.50980401
615.97113037	2.49019599
615.97521973	2.45098042
615.97924805	2.41176462
615.98327637	2.43137264
615.98327637	2.43137264
615.98748779	2.41176462
615.99145508	2.45098042
615.99560547	2.47058821
615.99560547	2.43137264
615.99969482	2.43137264
616.00396729	2.43137264
616.00396729	2.45098042
616.00793457	2.50980401
616.01196289	2.54901958
616.01611328	2.52941179
616.01611328	2.49019599
616.02026367	2.47058821
616.02435303	2.49019599
616.02838135	2.50980401
616.02838135	2.54901958
616.03240967	2.56862736
616.03656006	2.56862736
616.04089355	2.50980401
616.04089355	2.49019599
616.04473877	2.50980401
616.04882813	2.52941179
616.04882813	2.54901958
616.05297852	2.56862736
616.05706787	2.52941179
616.06115723	2.50980401
616.06115723	2.50980401
616.06524658	2.52941179
616.06945801	2.54901958
616.07348633	2.54901958
616.07348633	2.52941179
616.07788086	2.50980401
616.08184814	2.47058821
616.08624268	2.45098042
616.08624268	2.45098042
616.08978271	2.41176462
616.09387207	2.39215684
616.09387207	2.33333325
616.09796143	2.29411769
616.10205078	2.27450991
616.10620117	2.29411769
616.10620117	2.37254906
616.11029053	2.49019599
616.11437988	2.60784316
616.11865234	2.70588231
616.11865234	2.78431368
616.12249756	2.82352948
616.12664795	2.86274505
616.13104248	2.92156863
616.13488770	2.88235283
616.13891602	2.80392146
616.13891602	2.72549009
616.14306641	2.66666675
616.14733887	2.62745094
616.15136719	2.58823538
616.15136719	2.54901958
616.15551758	2.50980401
616.15954590	2.45098042
616.16369629	2.43137264
616.16369629	2.41176462
616.16784668	2.43137264
616.17175293	2.43137264
616.17590332	2.41176462
616.17987061	2.37254906
616.18414307	2.35294127
616.18414307	2.35294127
616.18817139	2.37254906
616.19226074	2.39215684
616.19647217	2.37254906
616.19647217	2.35294127
616.20050049	2.33333325
616.20446777	2.33333325
616.20861816	2.33333325
616.20861816	2.33333325
616.21270752	2.35294127
616.21673584	2.37254906
616.22100830	2.31372547
616.22497559	2.29411769
616.22912598	2.27450991
616.22912598	2.29411769
616.23321533	2.29411769
616.23754883	2.27450991
616.24145508	2.25490189
616.24145508	2.23529410
616.24554443	2.23529410
616.24957275	2.25490189
616.25408936	2.25490189
616.25408936	2.23529410
616.25787354	2.17647052
616.26196289	2.15686274
616.26593018	2.15686274
616.26995850	2.15686274
616.27429199	2.15686274
616.27429199	2.15686274
616.27825928	2.11764717
616.28234863	2.09803915
616.28649902	2.15686274
616.28649902	2.19607854
616.29083252	2.21568632
616.29455566	2.23529410
616.29895020	2.23529410
616.29895020	2.23529410
616.30291748	2.23529410
616.30688477	2.25490189
616.31127930	2.37254906
616.31512451	2.37254906
616.31927490	2.35294127
616.31927490	2.33333325
616.32330322	2.35294127
616.32739258	2.41176462
616.33148193	2.45098042
616.33148193	2.47058821
616.33587646	2.47058821
616.33978271	2.43137264
616.34381104	2.45098042
616.34381104	2.49019599
616.34790039	2.54901958
616.35205078	2.60784316
616.35607910	2.56862736
616.36016846	2.52941179
616.36425781	2.52941179
616.36425781	2.56862736
616.36840820	2.60784316
616.37243652	2.62745094
616.37658691	2.62745094
616.37658691	2.58823538
616.38061523	2.54901958
616.38482666	2.56862736
616.38885498	2.60784316
616.38885498	2.64705873
616.39306641	2.66666675
616.39746094	2.64705873
616.40124512	2.56862736
616.40527344	2.56862736
616.40948486	2.60784316
616.40948486	2.64705873
616.41339111	2.64705873
616.41772461	2.60784316
616.42169189	2.54901958
616.42169189	2.54901958
616.42572021	2.56862736
616.42980957	2.60784316
616.43414307	2.60784316
616.43414307	2.60784316
616.43829346	2.58823538
616.44219971	2.56862736
616.44219971	2.56862736
616.44616699	2.60784316
616.45043945	2.64705873
616.45446777	2.64705873
616.45446777	2.60784316
616.45849609	2.56862736
616.46276855	2.54901958
616.46673584	2.56862736
616.46673584	2.62745094
616.47088623	2.64705873
616.47485352	2.64705873
616.47894287	2.60784316
616.47894287	2.56862736
616.48303223	2.54901958
616.48748779	2.56862736
616.48748779	2.58823538
616.49127197	2.58823538
616.49542236	2.58823538
616.49951172	2.56862736
616.49951172	2.54901958
616.50360107	2.54901958
616.50769043	2.56862736
616.51202393	2.58823538
616.51202393	2.60784316
616.51629639	2.56862736
616.51995850	2.52941179
616.52416992	2.52941179
616.52416992	2.52941179
616.52832031	2.56862736
616.53247070	2.58823538
616.53247070	2.56862736
616.53631592	2.52941179
616.54083252	2.49019599
616.54486084	2.50980401
616.54486084	2.50980401
616.54864502	2.56862736
616.55291748	2.58823538
616.55682373	2.58823538
616.55682373	2.54901958
616.56079102	2.52941179
616.56506348	2.56862736
616.56909180	2.60784316
616.56909180	2.64705873
616.57324219	2.64705873
616.57733154	2.62745094
616.57733154	2.58823538
616.58142090	2.56862736
616.58563232	2.54901958
616.58996582	2.60784316
616.58996582	2.62745094
616.59387207	2.64705873
616.59796143	2.60784316
616.60217285	2.56862736
616.60217285	2.54901958
616.60583496	2.54901958
616.61004639	2.56862736
616.61431885	2.58823538
616.61431885	2.58823538
616.61816406	2.56862736
616.62249756	2.52941179
616.62249756	2.54901958
616.62652588	2.54901958
616.63092041	2.56862736
616.63464355	2.52941179
616.63464355	2.47058821
616.63867188	2.41176462
616.64270020	2.37254906
616.64709473	2.33333325
616.64709473	2.31372547
616.65093994	2.29411769
616.65521240	2.33333325
616.65942383	2.39215684
616.66326904	2.47058821
616.66735840	2.64705873
616.66735840	2.82352948
616.67150879	2.94117641
616.67596436	2.96078420
616.67993164	2.96078420
616.67993164	2.90196085
616.68377686	2.88235283
616.68786621	2.88235283
616.69201660	2.82352948
616.69201660	2.78431368
616.69604492	2.70588231
616.70013428	2.58823538
616.70446777	2.49019599
616.70837402	2.47058821
616.71246338	2.50980401
616.71246338	2.47058821
616.71655273	2.43137264
616.72070313	2.41176462
616.72473145	2.37254906
616.72473145	2.37254906
616.72882080	2.41176462
616.73291016	2.43137264
616.73706055	2.43137264
616.73706055	2.37254906
616.74121094	2.37254906
616.74517822	2.37254906
616.74920654	2.41176462
616.75335693	2.41176462
616.75762939	2.39215684
616.75762939	2.35294127
616.76165771	2.35294127
616.76580811	2.35294127
616.76983643	2.37254906
616.76983643	2.39215684
616.77404785	2.39215684
616.77795410	2.35294127
616.78210449	2.33333325
616.78210449	2.33333325
616.78619385	2.33333325
616.79052734	2.35294127
616.79449463	2.31372547
616.79840088	2.29411769
616.80261230	2.27450991
616.80261230	2.25490189
616.80688477	2.25490189
616.81072998	2.27450991
616.81500244	2.25490189
616.81500244	2.23529410
616.81909180	2.17647052
616.82324219	2.15686274
616.82739258	2.17647052
616.82739258	2.19607854
616.83135986	2.21568632
616.83551025	2.21568632
616.83966064	2.19607854
616.84368896	2.19607854
616.84765625	2.19607854
616.84765625	2.27450991
616.85168457	2.31372547
616.85577393	2.33333325
616.85992432	2.31372547
616.85992432	2.31372547
616.86419678	2.31372547
616.86822510	2.37254906
616.87219238	2.45098042
616.87219238	2.49019599
616.87640381	2.49019599
616.88232422	2.45098042
616.88458252	2.47058821
616.88854980	2.50980401
616.89270020	2.54901958
616.89270020	2.58823538
616.89678955	2.54901958
616.90087891	2.54901958
616.90496826	2.52941179
616.90496826	2.54901958
616.90948486	2.58823538
616.91308594	2.62745094
616.91809082	2.60784316
616.91809082	2.56862736
616.92138672	2.56862736
616.92547607	2.54901958
616.92950439	2.62745094
616.93414307	2.64705873
616.93774414	2.62745094
616.93774414	2.54901958
616.94171143	2.52941179
616.94586182	2.54901958
616.95013428	2.58823538
616.95013428	2.58823538
616.95452881	2.60784316
616.95861816	2.54901958
616.96258545	2.50980401
616.96258545	2.50980401
616.96655273	2.54901958
616.97058105	2.54901958
616.97058105	2.54901958
616.97454834	2.52941179
616.97894287	2.49019599
616.98297119	2.49019599
616.98297119	2.49019599
616.98687744	2.50980401
616.99102783	2.52941179
616.99536133	2.54901958
616.99536133	2.49019599
616.99957275	2.47058821
617.00323486	2.45098042
617.00732422	2.45098042
617.00732422	2.49019599
617.01141357	2.50980401
617.01556396	2.50980401
617.01556396	2.47058821
617.01965332	2.45098042
617.02374268	2.45098042
617.02783203	2.47058821
617.02783203	2.49019599
617.03192139	2.50980401
617.03613281	2.49019599
617.04016113	2.43137264
617.04016113	2.41176462
617.04425049	2.41176462
617.04833984	2.43137264
617.05249023	2.47058821
617.05249023	2.49019599
617.05651855	2.45098042
617.06066895	2.43137264
617.06066895	2.41176462
617.06469727	2.39215684
617.06884766	2.41176462
617.07305908	2.45098042
617.07305908	2.45098042
617.07702637	2.43137264
617.08123779	2.41176462
617.08514404	2.41176462
617.08514404	2.41176462
617.08947754	2.43137264
617.09344482	2.43137264
617.09765625	2.41176462
617.09765625	2.39215684
617.10168457	2.39215684
617.10601807	2.41176462
617.10601807	2.43137264
617.10980225	2.47058821
617.11389160	2.47058821
617.11816406	2.45098042
617.11816406	2.43137264
617.12207031	2.45098042
617.12622070	2.50980401
617.13031006	2.52941179
617.13031006	2.54901958
617.13476563	2.54901958
617.13842773	2.52941179
617.14257813	2.49019599
617.14257813	2.49019599
617.14672852	2.52941179
617.15087891	2.54901958
617.15087891	2.58823538
617.15502930	2.56862736
617.15899658	2.52941179
617.16308594	2.52941179
617.16308594	2.49019599
617.16729736	2.50980401
617.17120361	2.54901958
617.17535400	2.56862736
617.17535400	2.56862736
617.17938232	2.54901958
617.18359375	2.50980401
617.18774414	2.52941179
617.19177246	2.52941179
617.19586182	2.50980401
617.19586182	2.45098042
617.19989014	2.43137264
617.20404053	2.37254906
617.20812988	2.31372547
617.20812988	2.29411769
617.21221924	2.29411769
617.21636963	2.27450991
617.22039795	2.29411769
617.22039795	2.37254906
617.22442627	2.47058821
617.22863770	2.62745094
617.23266602	2.94117641
617.23687744	2.98039222
617.24090576	2.96078420
617.24090576	2.94117641
617.24499512	2.92156863
617.24908447	2.90196085
617.25366211	2.88235283
617.25366211	2.80392146
617.25726318	2.68627453
617.26135254	2.60784316
617.26556396	2.54901958
617.26556396	2.52941179
617.26965332	2.52941179
617.27368164	2.49019599
617.27777100	2.41176462
617.28186035	2.39215684
617.28619385	2.39215684
617.28619385	2.39215684
617.28997803	2.41176462
617.29418945	2.41176462
617.29821777	2.39215684
617.29821777	2.37254906
617.30261230	2.35294127
617.30639648	2.33333325
617.31054688	2.37254906
617.31054688	2.39215684
617.31463623	2.41176462
617.31872559	2.41176462
617.32275391	2.35294127
617.32684326	2.33333325
617.33117676	2.37254906
617.33117676	2.39215684
617.33502197	2.41176462
617.33929443	2.37254906
617.34332275	2.31372547
617.34332275	2.31372547
617.34735107	2.31372547
617.35144043	2.33333325
617.35565186	2.37254906
617.35565186	2.33333325
617.35961914	2.31372547
617.36376953	2.29411769
617.36804199	2.25490189
617.37188721	2.25490189
617.37603760	2.23529410
617.37603760	2.19607854
617.38024902	2.17647052
617.38452148	2.13725495
617.38848877	2.15686274
617.38848877	2.15686274
617.39245605	2.21568632
617.39678955	2.21568632
617.40087891	2.17647052
617.40087891	2.15686274
617.40484619	2.15686274
617.40881348	2.17647052
617.41290283	2.23529410
617.41717529	2.23529410
617.42120361	2.25490189
617.42120361	2.25490189
617.42529297	2.29411769
617.42932129	2.35294127
617.43341064	2.41176462
617.43341064	2.43137264
617.43762207	2.41176462
617.44171143	2.39215684
617.44586182	2.41176462
617.44586182	2.43137264
617.44989014	2.47058821
617.45391846	2.52941179
617.45800781	2.50980401
617.46228027	2.50980401
617.46618652	2.50980401
617.46618652	2.52941179
617.47033691	2.58823538
617.47448730	2.60784316
617.47851563	2.56862736
617.47851563	2.54901958
617.48248291	2.54901958
617.48675537	2.54901958
617.49084473	2.58823538
617.49084473	2.58823538
617.49481201	2.60784316
617.49914551	2.58823538
617.49914551	2.52941179
617.50311279	2.54901958
617.50714111	2.56862736
617.51123047	2.60784316
617.51123047	2.60784316
617.51544189	2.60784316
617.51965332	2.54901958
617.52349854	2.54901958
617.52349854	2.56862736
617.52758789	2.60784316
617.53173828	2.58823538
617.53594971	2.60784316
617.53594971	2.58823538
617.53985596	2.50980401
617.54400635	2.50980401
617.54400635	2.52941179
617.54809570	2.56862736
617.55255127	2.56862736
617.55633545	2.54901958
617.55633545	2.50980401
617.56036377	2.50980401
617.56451416	2.52941179
617.56884766	2.54901958
617.56884766	2.54901958
617.57287598	2.56862736
617.57696533	2.56862736
617.58105469	2.52941179
617.58105469	2.50980401
617.58544922	2.50980401
617.58929443	2.52941179
617.58929443	2.56862736
617.59344482	2.56862736
617.59747314	2.52941179
617.60162354	2.49019599
617.60162354	2.49019599
617.60589600	2.50980401
617.60955811	2.56862736
617.61358643	2.56862736
617.61358643	2.56862736
617.61785889	2.52941179
617.62188721	2.50980401
617.62597656	2.50980401
617.62597656	2.50980401
617.63006592	2.56862736
617.63421631	2.54901958
617.63421631	2.54901958
617.63867188	2.50980401
617.64227295	2.49019599
617.64648438	2.49019599
617.64648438	2.56862736
617.65063477	2.56862736
617.65472412	2.54901958
617.65869141	2.54901958
617.65869141	2.49019599
617.66278076	2.52941179
617.66717529	2.52941179
617.67102051	2.58823538
617.67517090	2.56862736
617.67919922	2.52941179
617.67919922	2.49019599
617.68328857	2.49019599
617.68737793	2.50980401
617.69152832	2.52941179
617.69152832	2.54901958
617.69549561	2.56862736
617.69964600	2.52941179
617.70379639	2.50980401
617.70379639	2.50980401
617.70788574	2.52941179
617.71191406	2.54901958
617.71624756	2.49019599
617.72033691	2.45098042
617.72436523	2.45098042
617.72436523	2.47058821
617.72833252	2.52941179
617.73254395	2.52941179
617.73669434	2.52941179
617.73669434	2.45098042
617.74090576	2.43137264
617.74475098	2.45098042
617.74884033	2.45098042
617.74884033	2.49019599
617.75299072	2.50980401
617.75708008	2.47058821
617.76110840	2.39215684
617.76513672	2.41176462
617.76940918	2.47058821
617.76940918	2.49019599
617.77343750	2.49019599
617.77770996	2.47058821
617.78179932	2.43137264
617.78179932	2.45098042
617.78582764	2.45098042
617.78979492	2.45098042
617.79388428	2.45098042
617.79388428	2.43137264
617.79821777	2.43137264
617.80236816	2.41176462
617.80621338	2.39215684
617.81024170	2.41176462
617.81439209	2.41176462
617.81439209	2.43137264
617.81842041	2.39215684
617.82263184	2.39215684
617.82684326	2.41176462
617.82684326	2.43137264
617.83081055	2.45098042
617.83496094	2.45098042
617.83905029	2.45098042
617.83905029	2.41176462
617.84301758	2.41176462
617.84735107	2.41176462
617.85156250	2.45098042
617.85528564	2.45098042
617.85943604	2.41176462
617.85943604	2.39215684
617.86352539	2.45098042
617.86761475	2.43137264
617.87170410	2.47058821
617.87170410	2.47058821
617.87603760	2.45098042
617.87988281	2.43137264
617.88403320	2.43137264
617.88403320	2.43137264
617.88818359	2.45098042
617.89215088	2.47058821
617.89624023	2.43137264
617.90057373	2.39215684
617.90460205	2.41176462
617.90460205	2.41176462
617.90856934	2.45098042
617.91265869	2.47058821
617.91687012	2.45098042
617.91687012	2.43137264
617.92095947	2.45098042
617.92498779	2.43137264
617.92907715	2.43137264
617.92907715	2.45098042
617.93316650	2.45098042
617.93731689	2.47058821
617.94134521	2.43137264
617.94537354	2.43137264
617.94958496	2.45098042
617.94958496	2.49019599
617.95367432	2.49019599
617.95782471	2.47058821
617.96197510	2.43137264
617.96197510	2.43137264
617.96612549	2.43137264
617.97009277	2.45098042
617.97424316	2.45098042
617.97424316	2.47058821
617.97827148	2.49019599
617.98236084	2.45098042
617.98236084	2.43137264
617.98657227	2.43137264
617.99047852	2.47058821
617.99456787	2.49019599
617.99456787	2.45098042
617.99884033	2.43137264
618.00292969	2.45098042
618.00695801	2.45098042
618.00695801	2.47058821
618.01104736	2.50980401
618.01531982	2.50980401
618.01947021	2.49019599
618.01947021	2.43137264
618.02325439	2.43137264
618.02734375	2.43137264
618.02734375	2.47058821
618.03155518	2.47058821
618.03588867	2.47058821
618.03967285	2.43137264
618.03967285	2.41176462
618.04376221	2.41176462
618.04785156	2.45098042
618.05236816	2.47058821
618.05236816	2.49019599
618.05603027	2.47058821
618.06018066	2.43137264
618.06427002	2.41176462
618.06427002	2.41176462
618.06829834	2.45098042
618.07238770	2.47058821
618.07238770	2.47058821
618.07653809	2.45098042
618.08093262	2.41176462
618.08489990	2.41176462
618.08489990	2.43137264
618.08892822	2.47058821
618.09295654	2.49019599
618.09729004	2.49019599
618.09729004	2.47058821
618.10144043	2.43137264
618.10546875	2.43137264
618.10925293	2.45098042
618.10925293	2.50980401
618.11352539	2.52941179
618.11761475	2.49019599
618.11761475	2.45098042
618.12182617	2.43137264
618.12591553	2.45098042
618.12982178	2.49019599
618.12982178	2.50980401
618.13403320	2.50980401
618.13812256	2.47058821
618.14215088	2.43137264
618.14215088	2.43137264
618.14617920	2.45098042
618.15026855	2.49019599
618.15441895	2.49019599
618.15441895	2.50980401
618.15844727	2.49019599
618.16259766	2.47058821
618.16259766	2.47058821
618.16662598	2.49019599
618.17077637	2.50980401
618.17486572	2.52941179
618.17486572	2.52941179
618.17895508	2.50980401
618.18304443	2.47058821
618.18731689	2.47058821
618.18731689	2.50980401
618.19122314	2.50980401
618.19525146	2.52941179
618.19946289	2.47058821
618.20361328	2.45098042
618.20770264	2.49019599
618.20770264	2.50980401
618.21191406	2.52941179
618.21588135	2.50980401
618.21997070	2.47058821
618.21997070	2.47058821
618.22412109	2.47058821
618.22814941	2.50980401
618.23217773	2.50980401
618.23217773	2.50980401
618.23638916	2.50980401
618.24035645	2.47058821
618.24450684	2.49019599
618.24853516	2.50980401
618.25280762	2.52941179
618.25280762	2.52941179
618.25677490	2.47058821
618.26080322	2.43137264
618.26507568	2.43137264
618.26507568	2.45098042
618.26910400	2.49019599
618.27313232	2.49019599
618.27722168	2.47058821
618.27722168	2.41176462
618.28137207	2.39215684
618.28564453	2.43137264
618.28967285	2.47058821
618.29370117	2.45098042
618.29815674	2.39215684
618.29815674	2.39215684
618.30194092	2.41176462
618.30590820	2.43137264
618.30999756	2.45098042
618.30999756	2.45098042
618.31414795	2.43137264
618.31817627	2.39215684
618.32232666	2.37254906
618.32232666	2.41176462
618.32635498	2.41176462
618.33050537	2.43137264
618.33483887	2.45098042
618.33868408	2.41176462
618.34277344	2.41176462
618.34277344	2.45098042
618.34680176	2.49019599
618.35107422	2.50980401
618.35504150	2.50980401
618.35504150	2.49019599
618.35913086	2.43137264
618.36334229	2.47058821
618.36737061	2.50980401
618.36737061	2.50980401
618.37152100	2.52941179
618.37567139	2.54901958
618.37963867	2.45098042
618.38378906	2.47058821
618.38793945	2.47058821
618.38793945	2.49019599
618.39196777	2.45098042
618.39599609	2.39215684
618.40045166	2.31372547
618.40045166	2.27450991
618.40429688	2.21568632
618.40838623	2.21568632
618.41247559	2.23529410
618.41247559	2.29411769
618.41656494	2.33333325
618.42065430	2.39215684
618.42474365	2.62745094
618.42883301	2.80392146
618.43292236	2.90196085
618.43292236	2.98039222
618.43719482	2.96078420
618.44116211	2.90196085
618.44537354	2.84313726
618.44537354	2.78431368
618.44934082	2.72549009
618.45343018	2.68627453
618.45745850	2.62745094
618.45745850	2.56862736
618.46160889	2.50980401
618.46575928	2.45098042
618.46984863	2.43137264
618.47387695	2.43137264
618.47802734	2.39215684
618.47802734	2.35294127
618.48199463	2.33333325
618.48632813	2.31372547
618.49035645	2.35294127
618.49035645	2.37254906
618.49438477	2.37254906
618.49841309	2.37254906
618.50280762	2.35294127
618.50280762	2.35294127
618.50653076	2.35294127
618.51080322	2.37254906
618.51080322	2.35294127
618.51495361	2.35294127
618.51898193	2.33333325
618.52307129	2.31372547
618.52307129	2.29411769
618.52716064	2.31372547
618.53125000	2.33333325
618.53576660	2.35294127
618.53576660	2.31372547
618.53936768	2.29411769
618.54351807	2.25490189
618.54766846	2.25490189
618.54766846	2.27450991
618.55194092	2.29411769
618.55578613	2.29411769
618.55578613	2.27450991
618.55993652	2.21568632
618.56396484	2.19607854
618.56811523	2.21568632
618.56811523	2.21568632
618.57214355	2.21568632
618.57623291	2.17647052
618.58032227	2.13725495
618.58032227	2.13725495
618.58459473	2.13725495
618.58856201	2.13725495
618.59265137	2.15686274
618.59265137	2.15686274
618.59674072	2.11764717
618.60119629	2.09803915
618.60119629	2.09803915
618.60498047	2.11764717
618.60900879	2.15686274
618.61322021	2.15686274
618.61322021	2.17647052
618.61743164	2.15686274
618.62133789	2.15686274
618.62554932	2.17647052
618.62554932	2.19607854
618.62957764	2.25490189
618.63385010	2.27450991
618.63787842	2.23529410
618.63787842	2.25490189
618.64184570	2.23529410
618.64587402	2.27450991
618.64587402	2.31372547
618.65002441	2.35294127
618.65423584	2.37254906
618.65820313	2.39215684
618.65820313	2.35294127
618.66229248	2.35294127
618.66638184	2.35294127
618.67059326	2.41176462
618.67059326	2.45098042
618.67449951	2.45098042
618.67864990	2.45098042
618.68273926	2.41176462
618.68682861	2.45098042
618.69097900	2.49019599
618.69097900	2.50980401
618.69506836	2.47058821
618.69921875	2.45098042
618.70324707	2.41176462
618.70324707	2.43137264
618.70733643	2.45098042
618.71160889	2.49019599
618.71569824	2.50980401
618.71569824	2.49019599
618.71960449	2.43137264
618.72369385	2.43137264
618.72814941	2.47058821
618.73199463	2.50980401
618.73620605	2.47058821
618.73620605	2.45098042
618.74023438	2.41176462
618.74414063	2.41176462
618.74835205	2.45098042
618.74835205	2.47058821
618.75256348	2.49019599
618.75659180	2.47058821
618.76062012	2.41176462
618.76062012	2.41176462
618.76513672	2.43137264
618.76904297	2.45098042
618.77301025	2.49019599
618.77709961	2.45098042
618.78118896	2.41176462
618.78118896	2.39215684
618.78570557	2.39215684
618.78930664	2.43137264
618.79339600	2.45098042
618.79339600	2.43137264
618.79748535	2.39215684
618.80224609	2.35294127
618.80578613	2.37254906
618.80578613	2.41176462
618.80987549	2.45098042
618.81390381	2.47058821
618.81793213	2.39215684
618.82202148	2.39215684
618.82623291	2.41176462
618.82623291	2.47058821
618.83026123	2.47058821
618.83447266	2.47058821
618.83843994	2.41176462
618.83843994	2.39215684
618.84259033	2.37254906
618.84661865	2.41176462
618.85083008	2.45098042
618.85083008	2.45098042
618.85491943	2.45098042
618.85888672	2.43137264
618.86309814	2.39215684
618.86749268	2.43137264
618.87133789	2.49019599
618.87133789	2.49019599
618.87524414	2.47058821
618.87951660	2.39215684
618.88348389	2.37254906
618.88348389	2.37254906
618.88775635	2.43137264
618.89172363	2.47058821
618.89587402	2.47058821
618.89587402	2.43137264
618.90020752	2.43137264
618.90405273	2.43137264
618.90808105	2.43137264
618.91229248	2.43137264
618.91632080	2.43137264
618.91632080	2.39215684
618.92041016	2.39215684
618.92449951	2.39215684
618.92858887	2.43137264
618.92858887	2.45098042
618.93273926	2.45098042
618.93688965	2.45098042
618.94091797	2.41176462
618.94091797	2.43137264
618.94494629	2.45098042
618.94915771	2.47058821
618.95330811	2.45098042
618.95739746	2.45098042
618.96148682	2.41176462
618.96148682	2.41176462
618.96545410	2.43137264
618.96954346	2.45098042
618.97387695	2.45098042
618.97387695	2.45098042
618.97778320	2.41176462
618.98175049	2.43137264
618.98602295	2.41176462
618.98602295	2.45098042
618.99011230	2.45098042
618.99420166	2.45098042
618.99420166	2.43137264
618.99841309	2.41176462
619.00268555	2.39215684
619.00634766	2.41176462
619.00634766	2.45098042
619.01043701	2.45098042
619.01470947	2.47058821
619.01879883	2.43137264
619.01879883	2.39215684
619.02294922	2.41176462
619.02685547	2.43137264
619.03100586	2.43137264
619.03100586	2.43137264
619.03546143	2.41176462
619.03918457	2.41176462
619.03918457	2.37254906
619.04327393	2.39215684
619.04736328	2.41176462
619.05187988	2.45098042
619.05187988	2.45098042
619.05554199	2.45098042
619.05963135	2.41176462
619.06378174	2.39215684
619.06378174	2.41176462
619.06799316	2.43137264
619.07196045	2.45098042
619.07617188	2.47058821
619.07617188	2.43137264
619.08056641	2.39215684
619.08441162	2.39215684
619.08441162	2.43137264
619.08831787	2.47058821
619.09240723	2.50980401
619.09661865	2.45098042
619.09661865	2.39215684
619.10089111	2.37254906
619.10473633	2.37254906
619.10876465	2.43137264
619.10876465	2.49019599
619.11291504	2.47058821
619.11730957	2.45098042
619.12127686	2.43137264
619.12127686	2.41176462
619.12518311	2.41176462
619.12933350	2.45098042
619.12933350	2.45098042
619.13372803	2.45098042
619.13757324	2.45098042
619.14178467	2.43137264
619.14178467	2.39215684
619.14581299	2.39215684
619.14990234	2.43137264
619.15399170	2.45098042
619.15399170	2.43137264
619.15795898	2.41176462
619.16204834	2.37254906
619.16619873	2.37254906
619.16619873	2.41176462
619.17028809	2.45098042
619.17449951	2.45098042
619.17449951	2.43137264
619.17846680	2.37254906
619.18255615	2.41176462
619.18682861	2.39215684
619.18682861	2.43137264
619.19073486	2.43137264
619.19488525	2.45098042
619.19903564	2.43137264
619.19903564	2.41176462
619.20306396	2.39215684
619.20715332	2.43137264
619.21136475	2.43137264
619.21539307	2.45098042
619.21942139	2.41176462
619.21942139	2.39215684
619.22351074	2.37254906
619.22796631	2.39215684
619.23175049	2.45098042
619.23175049	2.43137264
619.23596191	2.41176462
619.23992920	2.37254906
619.24401855	2.33333325
619.24401855	2.33333325
619.24810791	2.37254906
619.25262451	2.37254906
619.25622559	2.33333325
619.26031494	2.33333325
619.26452637	2.31372547
619.26452637	2.33333325
619.26861572	2.37254906
619.27264404	2.37254906
619.27679443	2.37254906
619.27679443	2.35294127
619.28082275	2.33333325
619.28527832	2.31372547
619.28906250	2.37254906
619.28906250	2.37254906
619.29315186	2.43137264
619.29724121	2.45098042
619.30194092	2.39215684
619.30554199	2.43137264
619.30957031	2.45098042
619.30957031	2.49019599
619.31359863	2.49019599
619.31774902	2.45098042
619.32202148	2.41176462
619.32202148	2.41176462
619.32598877	2.43137264
619.33007813	2.47058821
619.33435059	2.50980401
619.33435059	2.49019599
619.33819580	2.47058821
619.34234619	2.47058821
619.34637451	2.45098042
619.35046387	2.49019599
619.35485840	2.50980401
619.35485840	2.47058821
619.35864258	2.41176462
619.36285400	2.35294127
619.36712646	2.29411769
619.36712646	2.29411769
619.37109375	2.29411769
619.37524414	2.27450991
619.37921143	2.23529410
619.37921143	2.23529410
619.38323975	2.27450991
619.38745117	2.39215684
619.39154053	2.64705873
619.39569092	2.76470590
619.39965820	2.78431368
619.39965820	2.82352948
619.40380859	2.84313726
619.40783691	2.88235283
619.41198730	2.86274505
619.41198730	2.82352948
619.41601563	2.72549009
619.42016602	2.62745094
619.42425537	2.56862736
619.42425537	2.52941179
619.42840576	2.52941179
619.43243408	2.50980401
619.43664551	2.39215684
619.44073486	2.35294127
619.44482422	2.35294127
619.44482422	2.35294127
619.44891357	2.37254906
619.45306396	2.41176462
619.45703125	2.39215684
619.45703125	2.33333325
619.46130371	2.31372547
619.46527100	2.31372547
619.46929932	2.33333325
619.46929932	2.37254906
619.47363281	2.35294127
619.47772217	2.33333325
619.48150635	2.29411769
619.48571777	2.33333325
619.48980713	2.33333325
619.48980713	2.33333325
619.49383545	2.39215684
619.49835205	2.37254906
619.50225830	2.31372547
619.50225830	2.31372547
619.50622559	2.29411769
619.51025391	2.33333325
619.51446533	2.37254906
619.51446533	2.33333325
619.51849365	2.29411769
619.52264404	2.25490189
619.52264404	2.27450991
619.52667236	2.31372547
619.53076172	2.31372547
619.53503418	2.33333325
619.53503418	2.27450991
619.53887939	2.21568632
619.54302979	2.21568632
619.54718018	2.19607854
619.54718018	2.25490189
619.55169678	2.25490189
619.55529785	2.23529410
619.55944824	2.19607854
619.55944824	2.19607854
619.56347656	2.19607854
619.56768799	2.19607854
619.56768799	2.21568632
619.57171631	2.23529410
619.57580566	2.25490189
619.57989502	2.21568632
619.57989502	2.21568632
619.58392334	2.25490189
619.58819580	2.29411769
619.59222412	2.33333325
619.59222412	2.35294127
619.59625244	2.33333325
619.60040283	2.31372547
619.60455322	2.33333325
619.60455322	2.37254906
619.60852051	2.41176462
619.61267090	2.47058821
619.61267090	2.47058821
619.61688232	2.47058821
619.62097168	2.45098042
619.62512207	2.45098042
619.62512207	2.47058821
619.62908936	2.52941179
619.63385010	2.56862736
619.63745117	2.56862736
619.63745117	2.50980401
619.64178467	2.49019599
619.64593506	2.50980401
619.65020752	2.56862736
619.65020752	2.60784316
619.65380859	2.62745094
619.65808105	2.60784316
619.65808105	2.56862736
619.66229248	2.56862736
619.66632080	2.56862736
619.67047119	2.60784316
619.67047119	2.62745094
619.67449951	2.62745094
619.67822266	2.56862736
619.68237305	2.54901958
619.68237305	2.52941179
619.68640137	2.56862736
619.69049072	2.58823538
619.69451904	2.58823538
619.69860840	2.56862736
619.70269775	2.54901958
619.70269775	2.52941179
619.70684814	2.52941179
619.71087646	2.58823538
619.71502686	2.58823538
619.71502686	2.56862736
619.71917725	2.54901958
619.72338867	2.52941179
619.72723389	2.50980401
619.72723389	2.54901958
619.73175049	2.56862736
619.73547363	2.56862736
619.73950195	2.52941179
619.74395752	2.50980401
619.74798584	2.50980401
619.74798584	2.54901958
619.75183105	2.56862736
619.75592041	2.54901958
619.76000977	2.54901958
619.76000977	2.49019599
619.76403809	2.47058821
619.76849365	2.52941179
619.77221680	2.56862736
619.77221680	2.56862736
619.77648926	2.54901958
619.78045654	2.50980401
619.78479004	2.50980401
619.78875732	2.50980401
619.79309082	2.54901958
619.79309082	2.54901958
619.79687500	2.52941179
619.80102539	2.50980401
619.80517578	2.49019599
619.80517578	2.50980401
619.80938721	2.50980401
619.81323242	2.52941179
619.81750488	2.52941179
619.81750488	2.47058821
619.82159424	2.47058821
619.82556152	2.47058821
619.83013916	2.52941179
619.83392334	2.52941179
619.83795166	2.52941179
619.83795166	2.49019599
619.84210205	2.47058821
619.84631348	2.47058821
619.85028076	2.50980401
619.85028076	2.52941179
619.85461426	2.52941179
619.85858154	2.50980401
619.86279297	2.49019599
619.86279297	2.47058821
619.86663818	2.49019599
619.87097168	2.52941179
619.87481689	2.52941179
619.87890625	2.49019599
619.88305664	2.45098042
619.88305664	2.45098042
619.88726807	2.49019599
619.89111328	2.52941179
619.89526367	2.54901958
619.89526367	2.52941179
619.89953613	2.49019599
619.90356445	2.47058821
619.90777588	2.47058821
619.90777588	2.49019599
619.91186523	2.52941179
619.91595459	2.52941179
619.91992188	2.45098042
619.92395020	2.43137264
619.92822266	2.45098042
619.92822266	2.49019599
619.93231201	2.49019599
619.93634033	2.47058821
619.94042969	2.45098042
619.94042969	2.43137264
619.94451904	2.45098042
619.94860840	2.47058821
619.95269775	2.50980401
619.95269775	2.49019599
619.95672607	2.45098042
619.96118164	2.41176462
619.96496582	2.41176462
619.96911621	2.45098042
619.97320557	2.50980401
619.97320557	2.49019599
619.97735596	2.45098042
619.98132324	2.41176462
619.98559570	2.41176462
619.98559570	2.43137264
619.98950195	2.45098042
619.99365234	2.49019599
619.99774170	2.45098042
619.99774170	2.41176462
620.00183105	2.39215684
620.00592041	2.41176462
620.01043701	2.49019599
620.01416016	2.52941179
620.01818848	2.52941179
620.01818848	2.47058821
620.02227783	2.45098042
620.02655029	2.47058821
620.03057861	2.50980401
620.03057861	2.52941179
620.03466797	2.52941179
620.03869629	2.49019599
620.04278564	2.47058821
620.04278564	2.47058821
620.04705811	2.47058821
620.05102539	2.50980401
620.05102539	2.52941179
620.05511475	2.52941179
620.05920410	2.49019599
620.06329346	2.47058821
620.06329346	2.45098042
620.06738281	2.49019599
620.07171631	2.50980401
620.07556152	2.49019599
620.07556152	2.43137264
620.07989502	2.37254906
620.08380127	2.29411769
620.08801270	2.25490189
620.08801270	2.25490189
620.09197998	2.29411769
620.09613037	2.29411769
620.09613037	2.31372547
620.10034180	2.35294127
620.10430908	2.41176462
620.10833740	2.52941179
620.10833740	2.68627453
620.11242676	2.80392146
620.11663818	2.90196085
620.12072754	2.90196085
620.12072754	2.90196085
620.12469482	2.90196085
620.12878418	2.86274505
620.13305664	2.84313726
620.13305664	2.78431368
620.13702393	2.72549009
620.14117432	2.64705873
620.14117432	2.56862736
620.14556885	2.52941179
620.14929199	2.49019599
620.15344238	2.47058821
620.15344238	2.47058821
620.15753174	2.41176462
620.16156006	2.39215684
620.16564941	2.39215684
620.16564941	2.37254906
620.16986084	2.39215684
620.17395020	2.41176462
620.17810059	2.39215684
620.17810059	2.35294127
620.18200684	2.33333325
620.18627930	2.33333325
620.18627930	2.37254906
620.19018555	2.41176462
620.19433594	2.37254906
620.19866943	2.33333325
620.19866943	2.29411769
620.20263672	2.31372547
620.20666504	2.31372547
620.21069336	2.35294127
620.21069336	2.37254906
620.21484375	2.37254906
620.21917725	2.33333325
620.22320557	2.29411769
620.22717285	2.31372547
620.23132324	2.33333325
620.23132324	2.33333325
620.23571777	2.31372547
620.23980713	2.25490189
620.24377441	2.25490189
620.24377441	2.23529410
620.24755859	2.25490189
620.25183105	2.25490189
620.25585938	2.27450991
620.25585938	2.25490189
620.25988770	2.21568632
620.26403809	2.17647052
620.26806641	2.17647052
620.27246094	2.17647052
620.27636719	2.17647052
620.27636719	2.15686274
620.28039551	2.11764717
620.28442383	2.11764717
620.28881836	2.15686274
620.28881836	2.19607854
620.29260254	2.23529410
620.29669189	2.21568632
620.30108643	2.19607854
620.30108643	2.17647052
620.30499268	2.19607854
620.30902100	2.27450991
620.31323242	2.35294127
620.31744385	2.33333325
620.32128906	2.33333325
620.32128906	2.35294127
620.32550049	2.39215684
620.32952881	2.43137264
620.33374023	2.43137264
620.33374023	2.45098042
620.33789063	2.47058821
620.34179688	2.43137264
620.34594727	2.41176462
620.34594727	2.47058821
620.35015869	2.50980401
620.35418701	2.54901958
620.35821533	2.52941179
620.36230469	2.50980401
620.36651611	2.49019599
620.36651611	2.50980401
620.37060547	2.52941179
620.37457275	2.56862736
620.37872314	2.56862736
620.37872314	2.52941179
620.38269043	2.52941179
620.38708496	2.52941179
620.39099121	2.54901958
620.39099121	2.56862736
620.39508057	2.56862736
620.39947510	2.54901958
620.40332031	2.50980401
620.40747070	2.50980401
620.41162109	2.54901958
620.41162109	2.56862736
620.41558838	2.58823538
620.41973877	2.52941179
620.42419434	2.50980401
620.42419434	2.49019599
620.42785645	2.50980401
620.43194580	2.52941179
620.43615723	2.52941179
620.43615723	2.49019599
620.44018555	2.45098042
620.44427490	2.45098042
620.44836426	2.49019599
620.45245361	2.50980401
620.45672607	2.49019599
620.45672607	2.47058821
620.46081543	2.45098042
620.46472168	2.47058821
620.46893311	2.49019599
620.46893311	2.50980401
620.47283936	2.50980401
620.47698975	2.47058821
620.48126221	2.45098042
620.48126221	2.43137264
620.48547363	2.45098042
620.48931885	2.47058821
620.49340820	2.50980401
620.49749756	2.50980401
620.50152588	2.45098042
620.50152588	2.43137264
620.50579834	2.45098042
620.50976563	2.49019599
620.51397705	2.50980401
620.51397705	2.52941179
620.51812744	2.49019599
620.52246094	2.45098042
620.52618408	2.43137264
620.52618408	2.45098042
620.53039551	2.49019599
620.53436279	2.52941179
620.53436279	2.49019599
620.53839111	2.47058821
620.54260254	2.45098042
620.54669189	2.47058821
620.54669189	2.49019599
620.55102539	2.52941179
620.55487061	2.52941179
620.55908203	2.49019599
620.55908203	2.43137264
620.56304932	2.47058821
620.56732178	2.49019599
620.57122803	2.50980401
620.57122803	2.50980401
620.57537842	2.47058821
620.57940674	2.45098042
620.57940674	2.45098042
620.58355713	2.45098042
620.58770752	2.47058821
620.59191895	2.49019599
620.59191895	2.49019599
620.59576416	2.47058821
620.59997559	2.43137264
620.60400391	2.39215684
620.60400391	2.41176462
620.60809326	2.45098042
620.61218262	2.49019599
620.61633301	2.47058821
620.61633301	2.45098042
620.62359619	2.41176462
620.62445068	2.39215684
620.62445068	2.39215684
620.62854004	2.43137264
620.63256836	2.45098042
620.63690186	2.45098042
620.63690186	2.41176462
620.64111328	2.37254906
620.64508057	2.39215684
620.64916992	2.41176462
620.64916992	2.43137264
620.65380859	2.47058821
620.65728760	2.45098042
620.66131592	2.41176462
620.66131592	2.43137264
620.66558838	2.45098042
620.66967773	2.49019599
620.66967773	2.50980401
620.67364502	2.52941179
620.67773438	2.50980401
620.68182373	2.49019599
620.68182373	2.49019599
620.68615723	2.50980401
620.69036865	2.54901958
620.69439697	2.56862736
620.69439697	2.54901958
620.69824219	2.50980401
620.70275879	2.47058821
620.70672607	2.49019599
620.70672607	2.50980401
620.71069336	2.52941179
620.71490479	2.56862736
620.71490479	2.52941179
620.71923828	2.47058821
620.72357178	2.45098042
620.72723389	2.43137264
620.72723389	2.47058821
620.73132324	2.43137264
620.73553467	2.41176462
620.73937988	2.31372547
620.73937988	2.25490189
620.74340820	2.19607854
620.74774170	2.21568632
620.75177002	2.37254906
620.75585938	2.41176462
620.75994873	2.49019599
620.75994873	2.56862736
620.76379395	2.70588231
620.76788330	2.82352948
620.77215576	2.96078420
620.77215576	2.98039222
620.77624512	2.96078420
620.78039551	2.90196085
620.78430176	2.84313726
620.78430176	2.78431368
620.78863525	2.70588231
620.79266357	2.66666675
620.79687500	2.50980401
620.80084229	2.45098042
620.80505371	2.43137264
620.80505371	2.41176462
620.80908203	2.41176462
620.81329346	2.43137264
620.81719971	2.41176462
620.81719971	2.39215684
620.82135010	2.37254906
620.82543945	2.37254906
620.82952881	2.37254906
620.82952881	2.37254906
620.83398438	2.39215684
620.83764648	2.39215684
620.84161377	2.35294127
620.84600830	2.35294127
620.85015869	2.37254906
620.85015869	2.35294127
620.85406494	2.35294127
620.85815430	2.33333325
620.86224365	2.33333325
620.86224365	2.31372547
620.86639404	2.29411769
620.87036133	2.33333325
620.87457275	2.33333325
620.87457275	2.35294127
620.87860107	2.33333325
620.88287354	2.27450991
620.88720703	2.23529410
620.89135742	2.29411769
620.89514160	2.33333325
620.89514160	2.29411769
620.89916992	2.23529410
620.90307617	2.21568632
620.90747070	2.19607854
620.90747070	2.19607854
620.91149902	2.19607854
620.91558838	2.21568632
620.91949463	2.15686274
620.91949463	2.13725495
620.92370605	2.11764717
620.92791748	2.11764717
620.93194580	2.15686274
620.93585205	2.15686274
620.93994141	2.13725495
620.93994141	2.11764717
620.94396973	2.13725495
620.94812012	2.17647052
620.95220947	2.19607854
620.95220947	2.23529410
620.95642090	2.19607854
620.96063232	2.19607854
620.96472168	2.21568632
620.96472168	2.27450991
620.96856689	2.29411769
620.97290039	2.35294127
620.97692871	2.35294127
620.98120117	2.37254906
620.98553467	2.37254906
620.98553467	2.41176462
620.98919678	2.47058821
620.99334717	2.50980401
620.99743652	2.52941179
620.99743652	2.49019599
621.00128174	2.49019599
621.00567627	2.49019599
621.00976563	2.50980401
621.00976563	2.56862736
621.01379395	2.60784316
621.01763916	2.56862736
621.02203369	2.52941179
621.02612305	2.56862736
621.03015137	2.58823538
621.03015137	2.60784316
621.03399658	2.60784316
621.03845215	2.58823538
621.04248047	2.56862736
621.04248047	2.54901958
621.04663086	2.58823538
621.05053711	2.60784316
621.05493164	2.58823538
621.05493164	2.58823538
621.05889893	2.56862736
621.06298828	2.56862736
621.06298828	2.56862736
621.06701660	2.56862736
621.07116699	2.58823538
621.07543945	2.58823538
621.07543945	2.56862736
621.07940674	2.56862736
621.08349609	2.54901958
621.08758545	2.54901958
621.08758545	2.56862736
621.09155273	2.56862736
621.09564209	2.54901958
621.09985352	2.50980401
621.09985352	2.50980401
621.10424805	2.50980401
621.10827637	2.52941179
621.10827637	2.54901958
621.11193848	2.52941179
621.11602783	2.52941179
621.12072754	2.50980401
621.12072754	2.49019599
621.12457275	2.50980401
621.12866211	2.52941179
621.13293457	2.54901958
621.13293457	2.54901958
621.13647461	2.50980401
621.14172363	2.49019599
621.14471436	2.49019599
621.14471436	2.54901958
621.14874268	2.54901958
621.15277100	2.54901958
621.15277100	2.54901958
621.15692139	2.50980401
621.16107178	2.49019599
621.16564941	2.49019599
621.16564941	2.52941179
621.16937256	2.54901958
621.17340088	2.56862736
621.17755127	2.52941179
621.17755127	2.49019599
621.18157959	2.49019599
621.18554688	2.50980401
621.18969727	2.54901958
621.18969727	2.52941179
621.19378662	2.52941179
621.19781494	2.50980401
621.19781494	2.49019599
621.20190430	2.49019599
621.20611572	2.49019599
621.21020508	2.52941179
621.21020508	2.52941179
621.21459961	2.50980401
621.21826172	2.47058821
621.22253418	2.47058821
621.22253418	2.49019599
621.22650146	2.50980401
621.23077393	2.52941179
621.23474121	2.47058821
621.23895264	2.45098042
621.24298096	2.45098042
621.24298096	2.47058821
621.24707031	2.47058821
621.25115967	2.49019599
621.25524902	2.47058821
621.25524902	2.41176462
621.25952148	2.39215684
621.26348877	2.41176462
621.26794434	2.41176462
621.26794434	2.43137264
621.27166748	2.45098042
621.27575684	2.43137264
621.27990723	2.41176462
621.28393555	2.41176462
621.28808594	2.41176462
621.28808594	2.45098042
621.29223633	2.47058821
621.29626465	2.47058821
621.30041504	2.39215684
621.30041504	2.39215684
621.30444336	2.41176462
621.30853271	2.47058821
621.31268311	2.52941179
621.31268311	2.49019599
621.31683350	2.47058821
621.32086182	2.45098042
621.32489014	2.49019599
621.32904053	2.50980401
621.33325195	2.50980401
621.33325195	2.52941179
621.33728027	2.49019599
621.34136963	2.47058821
621.34552002	2.49019599
621.34552002	2.52941179
621.34973145	2.52941179
621.35388184	2.52941179
621.35778809	2.52941179
621.35778809	2.52941179
621.36181641	2.50980401
621.36596680	2.50980401
621.37030029	2.49019599
621.37408447	2.50980401
621.37829590	2.45098042
621.37829590	2.37254906
621.38238525	2.29411769
621.38647461	2.23529410
621.39050293	2.23529410
621.39050293	2.23529410
621.39453125	2.25490189
621.39862061	2.25490189
621.40283203	2.27450991
621.40283203	2.37254906
621.40679932	2.52941179
621.41094971	2.72549009
621.41510010	2.96078420
621.41918945	2.94117641
621.42327881	2.90196085
621.42327881	2.88235283
621.42736816	2.88235283
621.43145752	2.82352948
621.43560791	2.74509811
621.43560791	2.66666675
621.43969727	2.58823538
621.44366455	2.56862736
621.44793701	2.52941179
621.44793701	2.47058821
621.45196533	2.47058821
621.45599365	2.45098042
621.46014404	2.39215684
621.46453857	2.37254906
621.46844482	2.39215684
621.46844482	2.39215684
621.47290039	2.39215684
621.47650146	2.35294127
621.48065186	2.31372547
621.48065186	2.33333325
621.48474121	2.35294127
621.48913574	2.37254906
621.49298096	2.37254906
621.49298096	2.37254906
621.49707031	2.35294127
621.50122070	2.31372547
621.50524902	2.33333325
621.50939941	2.35294127
621.51336670	2.37254906
621.51336670	2.33333325
621.51751709	2.31372547
621.52160645	2.29411769
621.52575684	2.29411769
621.52575684	2.31372547
621.52978516	2.33333325
621.53393555	2.33333325
621.53802490	2.31372547
621.53802490	2.25490189
621.54205322	2.21568632
621.54638672	2.21568632
621.54638672	2.23529410
621.55035400	2.25490189
621.55438232	2.25490189
621.55841064	2.21568632
621.55841064	2.15686274
621.56250000	2.13725495
621.56665039	2.15686274
621.57067871	2.17647052
621.57067871	2.19607854
621.57476807	2.17647052
621.57885742	2.13725495
621.58300781	2.11764717
621.58300781	2.13725495
621.58703613	2.15686274
621.59112549	2.19607854
621.59112549	2.21568632
621.59521484	2.23529410
621.59924316	2.17647052
621.60345459	2.21568632
621.60345459	2.23529410
621.60754395	2.29411769
621.61157227	2.31372547
621.61566162	2.35294127
621.61566162	2.33333325
621.61987305	2.33333325
621.62390137	2.33333325
621.62805176	2.39215684
621.62805176	2.41176462
621.63208008	2.45098042
621.63616943	2.49019599
621.63616943	2.47058821
621.64025879	2.43137264
621.64459229	2.45098042
621.64868164	2.47058821
621.64868164	2.54901958
621.65264893	2.56862736
621.65679932	2.56862736
621.66107178	2.54901958
621.66107178	2.52941179
621.66516113	2.50980401
621.66906738	2.54901958
621.67333984	2.60784316
621.67333984	2.60784316
621.67724609	2.54901958
621.68133545	2.52941179
621.68133545	2.52941179
621.68560791	2.52941179
621.68969727	2.58823538
621.69360352	2.60784316
621.69360352	2.58823538
621.69799805	2.52941179
621.70178223	2.52941179
621.70587158	2.50980401
621.70587158	2.54901958
621.71008301	2.58823538
621.71411133	2.60784316
621.71820068	2.56862736
621.71820068	2.52941179
621.72235107	2.52941179
621.72637939	2.52941179
621.72637939	2.56862736
621.73046875	2.58823538
621.73480225	2.58823538
621.73870850	2.54901958
621.73870850	2.49019599
621.74273682	2.49019599
621.74682617	2.50980401
621.75097656	2.50980401
621.75097656	2.52941179
621.75506592	2.50980401
621.75915527	2.49019599
621.76318359	2.50980401
621.76733398	2.50980401
621.77142334	2.54901958
621.77142334	2.56862736
621.77551270	2.54901958
621.77966309	2.45098042
621.78375244	2.43137264
621.78375244	2.43137264
621.78784180	2.49019599
621.79205322	2.54901958
621.79614258	2.54901958
621.79614258	2.47058821
621.80010986	2.43137264
621.80419922	2.45098042
621.80834961	2.52941179
621.81237793	2.54901958
621.81665039	2.52941179
621.81665039	2.47058821
621.82067871	2.45098042
621.82476807	2.43137264
621.82879639	2.47058821
621.82879639	2.50980401
621.83282471	2.50980401
621.83715820	2.47058821
621.84118652	2.43137264
621.84118652	2.41176462
621.84521484	2.45098042
621.84924316	2.49019599
621.85369873	2.50980401
621.85748291	2.45098042
621.86157227	2.43137264
621.86157227	2.43137264
621.86572266	2.41176462
621.86999512	2.47058821
621.87384033	2.50980401
621.87384033	2.47058821
621.87792969	2.41176462
621.88201904	2.39215684
621.88635254	2.41176462
621.88635254	2.39215684
621.89031982	2.43137264
621.89434814	2.45098042
621.89855957	2.39215684
621.90258789	2.37254906
621.90655518	2.37254906
621.90655518	2.41176462
621.91070557	2.43137264
621.91479492	2.41176462
621.91894531	2.37254906
621.91894531	2.33333325
621.92303467	2.35294127
621.92706299	2.37254906
621.93121338	2.41176462
621.93121338	2.47058821
621.93542480	2.47058821
621.93939209	2.45098042
621.94354248	2.43137264
621.94775391	2.45098042
621.95172119	2.50980401
621.95172119	2.49019599
621.95568848	2.47058821
621.95977783	2.43137264
621.96392822	2.45098042
621.96392822	2.47058821
621.96807861	2.52941179
621.97210693	2.52941179
621.97619629	2.49019599
621.97619629	2.47058821
621.98040771	2.45098042
621.98461914	2.47058821
621.98852539	2.50980401
621.99261475	2.54901958
621.99713135	2.54901958
621.99713135	2.49019599
622.00085449	2.45098042
622.00494385	2.41176462
622.00897217	2.41176462
622.00897217	2.39215684
622.01318359	2.35294127
622.01721191	2.25490189
622.02130127	2.21568632
622.02130127	2.19607854
622.02551270	2.21568632
622.02947998	2.27450991
622.03369141	2.45098042
622.03771973	2.50980401
622.04205322	2.60784316
622.04205322	2.72549009
622.04595947	2.82352948
622.04998779	2.92156863
622.05419922	2.96078420
622.05419922	2.92156863
622.05816650	2.88235283
622.06225586	2.80392146
622.06652832	2.72549009
622.06652832	2.68627453
622.07049561	2.64705873
622.07470703	2.58823538
622.07470703	2.52941179
622.07879639	2.47058821
622.08306885	2.45098042
622.08691406	2.45098042
622.08691406	2.45098042
622.09106445	2.47058821
622.09503174	2.45098042
622.09918213	2.39215684
622.09918213	2.33333325
622.10327148	2.33333325
622.10729980	2.37254906
622.11145020	2.37254906
622.11145020	2.37254906
622.11553955	2.33333325
622.11962891	2.33333325
622.11962891	2.33333325
622.12371826	2.33333325
622.12786865	2.33333325
622.13195801	2.39215684
622.13195801	2.39215684
622.13604736	2.39215684
622.14025879	2.35294127
622.14440918	2.31372547
622.14440918	2.31372547
622.14831543	2.33333325
622.15246582	2.37254906
622.15649414	2.39215684
622.15649414	2.35294127
622.16052246	2.29411769
622.16473389	2.27450991
622.16473389	2.27450991
622.16882324	2.31372547
622.17285156	2.33333325
622.17700195	2.33333325
622.17700195	2.27450991
622.18103027	2.23529410
622.18518066	2.19607854
622.18927002	2.21568632
622.18927002	2.23529410
622.19335938	2.27450991
622.19757080	2.23529410
622.20166016	2.17647052
622.20166016	2.15686274
622.20574951	2.17647052
622.20989990	2.19607854
622.20989990	2.21568632
622.21392822	2.21568632
622.21801758	2.19607854
622.22210693	2.15686274
622.22210693	2.15686274
622.22656250	2.21568632
622.23022461	2.23529410
622.23437500	2.29411769
622.23437500	2.31372547
622.23840332	2.29411769
622.24255371	2.27450991
622.24664307	2.35294127
622.25073242	2.41176462
622.25494385	2.43137264
622.25494385	2.43137264
622.25885010	2.43137264
622.26293945	2.43137264
622.26733398	2.45098042
622.26733398	2.47058821
622.27124023	2.50980401
622.27526855	2.54901958
622.27935791	2.52941179
622.27935791	2.49019599
622.28363037	2.49019599
622.28759766	2.50980401
622.29168701	2.60784316
622.29583740	2.60784316
622.29992676	2.56862736
622.29992676	2.52941179
622.30401611	2.52941179
622.30804443	2.56862736
622.31219482	2.60784316
622.31219482	2.60784316
622.31652832	2.58823538
622.32043457	2.52941179
622.32446289	2.52941179
622.32446289	2.52941179
622.32849121	2.56862736
622.33264160	2.62745094
622.33721924	2.52941179
622.34088135	2.52941179
622.34497070	2.52941179
622.34497070	2.52941179
622.34906006	2.54901958
622.35321045	2.60784316
622.35723877	2.58823538
622.35723877	2.50980401
622.36126709	2.47058821
622.36535645	2.47058821
622.36956787	2.50980401
622.36956787	2.56862736
622.37359619	2.56862736
622.37768555	2.52941179
622.38177490	2.45098042
622.38592529	2.47058821
622.39001465	2.50980401
622.39001465	2.52941179
622.39404297	2.52941179
622.39831543	2.50980401
622.40246582	2.47058821
622.40246582	2.43137264
622.40631104	2.47058821
622.41040039	2.52941179
622.41479492	2.54901958
622.41479492	2.52941179
622.41864014	2.45098042
622.42272949	2.43137264
622.42681885	2.47058821
622.43090820	2.52941179
622.43511963	2.54901958
622.43511963	2.49019599
622.43914795	2.45098042
622.44317627	2.45098042
622.44757080	2.47058821
622.44757080	2.49019599
622.45141602	2.50980401
622.45568848	2.52941179
622.45959473	2.50980401
622.45959473	2.49019599
622.46374512	2.47058821
622.46777344	2.49019599
622.47204590	2.52941179
622.47619629	2.49019599
622.48022461	2.47058821
622.48022461	2.47058821
622.48425293	2.47058821
622.48828125	2.49019599
622.49237061	2.49019599
622.49237061	2.50980401
622.49652100	2.49019599
622.50073242	2.47058821
622.50463867	2.43137264
622.50463867	2.43137264
622.50872803	2.47058821
622.51281738	2.49019599
622.51702881	2.45098042
622.52111816	2.39215684
622.52520752	2.37254906
622.52520752	2.41176462
622.52929688	2.47058821
622.53338623	2.45098042
622.53747559	2.45098042
622.53747559	2.41176462
622.54156494	2.41176462
622.54571533	2.41176462
622.54986572	2.43137264
622.54986572	2.43137264
622.55389404	2.43137264
622.55798340	2.41176462
622.55798340	2.39215684
622.56201172	2.37254906
622.56628418	2.37254906
622.57031250	2.41176462
622.57031250	2.41176462
622.57440186	2.43137264
622.57843018	2.41176462
622.58251953	2.39215684
622.58251953	2.37254906
622.58666992	2.41176462
622.59082031	2.45098042
622.59497070	2.49019599
622.59497070	2.47058821
622.59887695	2.43137264
622.60321045	2.43137264
622.60321045	2.47058821
622.60705566	2.47058821
622.61114502	2.47058821
622.61535645	2.49019599
622.61535645	2.49019599
622.61944580	2.45098042
622.62365723	2.45098042
622.62774658	2.45098042
622.62774658	2.47058821
622.63171387	2.49019599
622.63586426	2.50980401
622.63995361	2.50980401
622.63995361	2.49019599
622.64404297	2.49019599
622.64819336	2.49019599
622.64819336	2.47058821
622.65234375	2.50980401
622.65625000	2.49019599
622.66052246	2.43137264
622.66052246	2.37254906
622.66473389	2.33333325
622.66876221	2.33333325
622.67309570	2.29411769
622.67309570	2.29411769
622.67694092	2.27450991
622.68084717	2.25490189
622.68542480	2.27450991
622.68542480	2.35294127
622.68914795	2.43137264
622.69378662	2.52941179
622.69378662	2.64705873
622.69763184	2.76470590
622.70141602	2.80392146
622.70550537	2.84313726
622.70550537	2.88235283
622.70959473	2.88235283
622.71374512	2.84313726
622.71783447	2.78431368
622.71783447	2.72549009
622.72180176	2.64705873
622.72607422	2.58823538
622.73016357	2.52941179
622.73016357	2.50980401
622.73437500	2.45098042
622.73822021	2.41176462
622.73822021	2.39215684
622.74243164	2.39215684
622.74645996	2.37254906
622.75048828	2.39215684
622.75048828	2.37254906
622.75463867	2.37254906
622.75866699	2.35294127
622.76275635	2.31372547
622.76275635	2.29411769
622.76696777	2.31372547
622.77093506	2.33333325
622.77532959	2.33333325
622.77935791	2.31372547
622.78332520	2.27450991
622.78332520	2.27450991
622.78741455	2.31372547
622.79144287	2.33333325
622.79559326	2.35294127
622.79559326	2.33333325
622.79974365	2.29411769
622.80401611	2.25490189
622.80786133	2.25490189
622.80786133	2.29411769
622.81188965	2.37254906
622.81604004	2.37254906
622.82043457	2.25490189
622.82421875	2.21568632
622.82830811	2.21568632
622.82830811	2.29411769
622.83239746	2.29411769
622.83666992	2.27450991
622.84063721	2.21568632
622.84063721	2.17647052
622.84478760	2.15686274
622.84875488	2.17647052
622.85290527	2.23529410
622.85290527	2.27450991
622.85699463	2.19607854
622.86102295	2.13725495
622.86517334	2.11764717
622.86926270	2.17647052
622.87335205	2.19607854
622.87335205	2.19607854
622.87744141	2.17647052
622.88153076	2.15686274
622.88568115	2.17647052
622.88568115	2.21568632
622.88970947	2.25490189
622.89379883	2.29411769
622.89801025	2.29411769
622.89801025	2.27450991
622.90203857	2.27450991
622.90618896	2.29411769
622.91027832	2.43137264
622.91430664	2.43137264
622.91845703	2.41176462
622.91845703	2.39215684
622.92254639	2.41176462
622.92663574	2.43137264
622.93084717	2.49019599
622.93084717	2.50980401
622.93511963	2.50980401
622.93884277	2.50980401
622.94299316	2.49019599
622.94299316	2.49019599
622.94702148	2.47058821
622.95135498	2.52941179
622.95526123	2.56862736
622.95935059	2.54901958
622.96356201	2.52941179
622.96356201	2.50980401
622.96771240	2.52941179
622.97167969	2.58823538
622.97576904	2.62745094
622.97576904	2.58823538
622.97998047	2.54901958
622.98431396	2.52941179
622.98809814	2.52941179
622.98809814	2.56862736
622.99249268	2.56862736
622.99645996	2.54901958
623.00042725	2.52941179
623.00482178	2.50980401
623.00860596	2.52941179
623.00860596	2.54901958
623.01281738	2.54901958
623.01702881	2.52941179
623.02117920	2.47058821
623.02117920	2.47058821
623.02526855	2.49019599
623.02947998	2.50980401
623.03338623	2.50980401
623.03338623	2.50980401
623.03729248	2.49019599
623.04132080	2.47058821
623.04534912	2.45098042
623.04962158	2.50980401
623.05371094	2.54901958
623.05371094	2.54901958
623.05767822	2.52941179
623.06176758	2.49019599
623.06604004	2.47058821
623.06604004	2.50980401
623.07000732	2.50980401
623.07415771	2.54901958
623.07812500	2.52941179
623.07812500	2.47058821
623.08239746	2.45098042
623.08642578	2.49019599
623.08642578	2.50980401
623.09051514	2.52941179
623.09454346	2.50980401
623.09869385	2.49019599
623.09869385	2.47058821
623.10272217	2.49019599
623.10693359	2.49019599
623.11090088	2.52941179
623.11090088	2.52941179
623.11505127	2.52941179
623.11926270	2.49019599
623.12335205	2.45098042
623.12335205	2.45098042
623.12738037	2.50980401
623.13153076	2.54901958
623.13153076	2.49019599
623.13562012	2.50980401
623.13970947	2.49019599
623.14392090	2.47058821
623.14392090	2.47058821
623.14794922	2.49019599
623.15191650	2.52941179
623.15600586	2.50980401
623.15600586	2.49019599
623.16009521	2.45098042
623.16418457	2.43137264
623.16833496	2.43137264
623.16833496	2.49019599
623.17236328	2.50980401
623.17651367	2.49019599
623.17651367	2.45098042
623.18054199	2.45098042
623.18499756	2.45098042
623.18878174	2.47058821
623.18878174	2.49019599
623.19287109	2.49019599
623.19696045	2.45098042
623.20104980	2.43137264
623.20104980	2.43137264
623.20544434	2.43137264
623.20941162	2.43137264
623.21343994	2.47058821
623.21343994	2.45098042
623.21759033	2.39215684
623.22174072	2.39215684
623.22174072	2.39215684
623.22656250	2.41176462
623.22998047	2.43137264
623.23394775	2.43137264
623.23394775	2.41176462
623.23809814	2.39215684
623.24212646	2.39215684
623.24615479	2.37254906
623.24615479	2.37254906
623.25018311	2.37254906
623.25445557	2.39215684
623.25848389	2.37254906
623.26257324	2.37254906
623.26678467	2.33333325
623.26678467	2.35294127
623.27087402	2.39215684
623.27496338	2.41176462
623.27899170	2.37254906
623.27899170	2.35294127
623.28314209	2.35294127
623.28723145	2.35294127
623.29119873	2.41176462
623.29119873	2.43137264
623.29528809	2.47058821
623.29949951	2.47058821
623.30364990	2.43137264
623.30755615	2.45098042
623.31164551	2.47058821
623.31164551	2.50980401
623.31585693	2.49019599
623.32000732	2.49019599
623.32397461	2.43137264
623.32397461	2.45098042
623.32806396	2.49019599
623.33227539	2.50980401
623.33642578	2.50980401
623.33642578	2.49019599
623.34033203	2.49019599
623.34442139	2.47058821
623.34851074	2.49019599
623.35284424	2.49019599
623.35668945	2.49019599
623.35668945	2.41176462
623.36083984	2.37254906
623.36505127	2.35294127
623.36920166	2.35294127
623.36920166	2.31372547
623.37329102	2.29411769
623.37731934	2.27450991
623.38146973	2.27450991
623.38146973	2.33333325
623.38549805	2.41176462
623.38952637	2.50980401
623.39361572	2.78431368
623.39764404	2.86274505
623.40185547	2.88235283
623.40185547	2.88235283
623.40588379	2.90196085
623.40997314	2.90196085
623.41418457	2.88235283
623.41418457	2.78431368
623.41827393	2.64705873
623.42224121	2.56862736
623.42645264	2.50980401
623.42645264	2.50980401
623.43041992	2.50980401
623.43499756	2.49019599
623.43865967	2.41176462
623.44293213	2.39215684
623.44683838	2.41176462
623.44683838	2.41176462
623.45092773	2.41176462
623.45532227	2.41176462
623.45941162	2.39215684
623.45941162	2.39215684
623.46350098	2.39215684
623.46740723	2.39215684
623.47143555	2.39215684
623.47143555	2.41176462
623.47552490	2.39215684
623.47973633	2.35294127
623.48376465	2.35294127
623.48791504	2.37254906
623.49224854	2.41176462
623.49224854	2.41176462
623.49603271	2.37254906
623.50006104	2.31372547
623.50427246	2.33333325
623.50427246	2.35294127
623.50823975	2.37254906
623.51239014	2.37254906
623.51660156	2.35294127
623.51660156	2.33333325
623.52069092	2.27450991
623.52471924	2.25490189
623.52880859	2.27450991
623.53302002	2.29411769
623.53729248	2.29411769
623.53729248	2.25490189
623.54101563	2.23529410
623.54516602	2.21568632
623.54925537	2.23529410
623.54925537	2.25490189
623.55346680	2.23529410
623.55743408	2.21568632
623.56158447	2.19607854
623.56158447	2.17647052
623.56567383	2.15686274
623.56976318	2.21568632
623.57403564	2.25490189
623.57806396	2.21568632
623.58215332	2.21568632
623.58215332	2.21568632
623.58624268	2.25490189
623.59033203	2.31372547
623.59436035	2.31372547
623.59436035	2.33333325
623.59844971	2.33333325
623.60253906	2.33333325
623.60668945	2.35294127
623.60668945	2.41176462
623.61065674	2.45098042
623.61499023	2.45098042
623.61499023	2.45098042
623.61907959	2.43137264
623.62304688	2.45098042
623.62707520	2.49019599
623.62707520	2.50980401
623.63122559	2.54901958
623.63543701	2.52941179
623.63970947	2.50980401
623.63970947	2.49019599
623.64373779	2.49019599
623.64794922	2.50980401
623.65179443	2.56862736
623.65179443	2.56862736
623.65576172	2.58823538
623.65991211	2.54901958
623.65991211	2.50980401
623.66412354	2.52941179
623.66815186	2.56862736
623.67224121	2.56862736
623.67224121	2.58823538
623.67645264	2.56862736
623.68048096	2.50980401
623.68481445	2.50980401
623.68481445	2.52941179
623.68859863	2.54901958
623.69268799	2.56862736
623.69696045	2.56862736
623.69696045	2.50980401
623.70086670	2.49019599
623.70501709	2.49019599
623.70501709	2.52941179
623.70910645	2.52941179
623.71356201	2.52941179
623.71789551	2.50980401
623.71789551	2.45098042
623.72149658	2.45098042
623.72540283	2.47058821
623.72961426	2.49019599
623.72961426	2.49019599
623.73388672	2.49019599
623.73815918	2.49019599
623.74188232	2.45098042
623.74188232	2.45098042
623.74597168	2.45098042
623.75000000	2.47058821
623.75000000	2.47058821
623.75408936	2.45098042
623.75848389	2.45098042
623.76226807	2.45098042
623.76226807	2.45098042
623.76672363	2.47058821
623.77056885	2.49019599
623.77490234	2.49019599
623.77490234	2.47058821
623.77880859	2.45098042
623.78302002	2.45098042
623.78741455	2.49019599
623.79095459	2.50980401
623.79541016	2.50980401
623.79541016	2.50980401
623.79919434	2.47058821
623.80334473	2.45098042
623.80761719	2.45098042
623.80761719	2.49019599
623.81146240	2.49019599
623.81573486	2.50980401
623.81964111	2.47058821
623.81964111	2.47058821
623.82385254	2.45098042
623.82788086	2.45098042
623.83209229	2.49019599
623.83654785	2.47058821
623.84045410	2.47058821
623.84045410	2.47058821
623.84417725	2.47058821
623.84851074	2.50980401
623.85241699	2.52941179
623.85241699	2.49019599
623.85644531	2.49019599
623.86083984	2.47058821
623.86468506	2.47058821
623.86468506	2.50980401
623.86877441	2.49019599
623.87310791	2.49019599
623.87695313	2.47058821
623.88104248	2.45098042
623.88537598	2.45098042
623.88537598	2.45098042
623.88940430	2.45098042
623.89331055	2.47058821
623.89746094	2.47058821
623.89746094	2.45098042
623.90161133	2.43137264
623.90606689	2.43137264
623.90972900	2.45098042
623.90972900	2.47058821
623.91394043	2.49019599
623.91796875	2.47058821
623.92205811	2.43137264
623.92620850	2.41176462
623.93023682	2.47058821
623.93023682	2.49019599
623.93444824	2.49019599
623.93841553	2.43137264
623.94256592	2.43137264
623.94256592	2.45098042
623.94671631	2.47058821
623.95074463	2.47058821
623.95471191	2.47058821
623.95471191	2.45098042
623.95892334	2.43137264
623.96301270	2.43137264
623.96710205	2.45098042
623.97119141	2.49019599
623.97552490	2.49019599
623.97552490	2.43137264
623.97937012	2.39215684
623.98352051	2.39215684
623.98754883	2.43137264
623.98754883	2.45098042
623.99163818	2.49019599
623.99584961	2.50980401
624.00012207	2.47058821
624.00012207	2.43137264
624.00396729	2.43137264
624.00805664	2.45098042
624.01220703	2.45098042
624.01641846	2.45098042
624.02038574	2.43137264
624.02038574	2.45098042
624.02447510	2.45098042
624.02856445	2.47058821
624.03265381	2.49019599
624.03265381	2.50980401
624.03668213	2.45098042
624.04083252	2.43137264
624.04492188	2.43137264
624.04492188	2.45098042
624.04901123	2.47058821
624.05334473	2.49019599
624.05718994	2.43137264
624.06134033	2.41176462
624.06542969	2.41176462
624.06542969	2.45098042
624.06951904	2.47058821
624.07403564	2.49019599
624.07788086	2.47058821
624.07788086	2.43137264
624.08172607	2.41176462
624.08587646	2.41176462
624.09008789	2.45098042
624.09008789	2.49019599
624.09411621	2.50980401
624.09838867	2.49019599
624.09838867	2.43137264
624.10229492	2.41176462
624.10638428	2.41176462
624.11053467	2.45098042
624.11053467	2.49019599
624.11462402	2.50980401
624.11871338	2.47058821
624.12280273	2.43137264
624.12280273	2.41176462
624.12683105	2.45098042
624.13092041	2.45098042
624.13513184	2.47058821
624.13513184	2.47058821
624.13934326	2.41176462
624.14337158	2.41176462
624.14337158	2.43137264
624.14739990	2.43137264
624.15148926	2.45098042
624.15557861	2.45098042
624.15557861	2.45098042
624.15966797	2.41176462
624.16375732	2.39215684
624.16790771	2.39215684
624.16790771	2.43137264
624.17187500	2.45098042
624.17602539	2.43137264
624.18023682	2.39215684
624.18023682	2.35294127
624.18420410	2.39215684
624.18829346	2.37254906
624.18829346	2.41176462
624.19244385	2.43137264
624.19653320	2.47058821
624.20068359	2.39215684
624.20068359	2.35294127
624.20477295	2.37254906
624.20892334	2.41176462
624.21301270	2.45098042
624.21301270	2.45098042
624.21697998	2.41176462
624.22100830	2.37254906
624.22515869	2.37254906
624.22515869	2.39215684
624.22949219	2.43137264
624.23394775	2.45098042
624.23394775	2.43137264
624.23748779	2.37254906
624.24157715	2.37254906
624.24572754	2.35294127
624.24572754	2.41176462
624.24963379	2.43137264
624.25390625	2.43137264
624.25799561	2.41176462
624.25799561	2.39215684
624.26202393	2.41176462
624.26660156	2.43137264
624.27026367	2.41176462
624.27026367	2.43137264
624.27429199	2.43137264
624.27844238	2.39215684
624.27844238	2.37254906
624.28247070	2.37254906
624.28662109	2.39215684
624.29071045	2.45098042
624.29071045	2.45098042
624.29479980	2.45098042
624.29888916	2.43137264
624.30322266	2.41176462
624.30322266	2.43137264
624.30712891	2.43137264
624.31140137	2.43137264
624.31530762	2.39215684
624.31939697	2.39215684
624.32348633	2.39215684
624.32348633	2.41176462
624.32751465	2.43137264
624.33184814	2.43137264
624.33581543	2.43137264
624.33581543	2.39215684
624.33978271	2.35294127
624.34417725	2.33333325
624.34808350	2.37254906
624.34808350	2.41176462
624.35217285	2.43137264
624.35620117	2.41176462
624.36071777	2.37254906
624.36468506	2.37254906
624.36853027	2.39215684
624.36853027	2.41176462
624.37255859	2.43137264
624.37664795	2.41176462
624.38085938	2.37254906
624.38085938	2.37254906
624.38494873	2.39215684
624.38916016	2.43137264
624.39324951	2.47058821
624.39324951	2.49019599
624.39727783	2.45098042
624.40136719	2.45098042
624.40539551	2.43137264
624.40948486	2.49019599
624.41363525	2.52941179
624.41363525	2.52941179
624.41772461	2.47058821
624.42175293	2.47058821
624.42590332	2.47058821
624.42590332	2.47058821
624.42999268	2.49019599
624.43408203	2.50980401
624.43823242	2.49019599
624.43823242	2.47058821
624.44226074	2.41176462
624.44635010	2.43137264
624.45043945	2.39215684
624.45452881	2.35294127
624.45867920	2.25490189
624.45867920	2.19607854
624.46282959	2.23529410
624.46685791	2.29411769
624.47113037	2.37254906
624.47113037	2.45098042
624.47540283	2.50980401
624.47912598	2.62745094
624.48327637	2.72549009
624.48327637	2.86274505
624.48736572	2.94117641
624.49151611	2.98039222
624.49560547	2.94117641
624.49963379	2.80392146
624.50378418	2.72549009
624.50378418	2.70588231
624.50781250	2.66666675
624.51196289	2.64705873
624.51605225	2.58823538
624.51605225	2.52941179
624.52032471	2.49019599
624.52416992	2.45098042
624.52832031	2.43137264
624.52832031	2.43137264
624.53240967	2.43137264
624.53692627	2.43137264
624.54095459	2.39215684
624.54473877	2.37254906
624.54913330	2.37254906
624.54913330	2.41176462
624.55291748	2.45098042
624.55694580	2.43137264
624.56103516	2.39215684
624.56103516	2.37254906
624.56518555	2.37254906
624.56933594	2.41176462
624.57336426	2.43137264
624.57336426	2.43137264
624.57751465	2.43137264
624.58172607	2.35294127
624.58563232	2.35294127
624.58978271	2.37254906
624.59375000	2.41176462
624.59375000	2.41176462
624.59802246	2.37254906
624.60205078	2.33333325
624.60620117	2.31372547
624.60620117	2.31372547
624.61016846	2.37254906
624.61425781	2.39215684
624.61840820	2.37254906
624.61840820	2.31372547
624.62268066	2.27450991
624.62658691	2.23529410
624.62658691	2.27450991
624.63061523	2.29411769
624.63488770	2.27450991
624.63928223	2.27450991
624.63928223	2.23529410
624.64288330	2.19607854
624.64709473	2.21568632
624.65124512	2.23529410
624.65124512	2.27450991
624.65527344	2.25490189
624.65936279	2.21568632
624.66351318	2.19607854
624.66351318	2.21568632
624.66790771	2.21568632
624.67169189	2.25490189
624.67169189	2.29411769
624.67584229	2.29411769
624.67987061	2.27450991
624.68402100	2.25490189
624.68402100	2.27450991
624.68804932	2.33333325
624.69219971	2.37254906
624.69628906	2.41176462
624.69628906	2.39215684
624.70031738	2.35294127
624.70440674	2.33333325
624.70855713	2.39215684
624.70855713	2.45098042
624.71270752	2.49019599
624.71679688	2.49019599
624.71679688	2.47058821
624.72100830	2.43137264
624.72485352	2.45098042
624.72912598	2.50980401
624.72912598	2.52941179
624.73321533	2.54901958
624.73724365	2.54901958
624.74133301	2.50980401
624.74133301	2.49019599
624.74536133	2.52941179
624.74945068	2.56862736
624.75372314	2.58823538
624.75372314	2.58823538
624.75769043	2.54901958
624.76177979	2.50980401
624.76177979	2.52941179
624.76611328	2.54901958
624.77026367	2.54901958
624.77410889	2.58823538
624.77410889	2.56862736
624.77832031	2.50980401
624.78228760	2.49019599
624.78643799	2.49019599
624.78643799	2.52941179
624.79040527	2.56862736
624.79455566	2.56862736
624.79864502	2.49019599
624.80279541	2.50980401
624.80688477	2.50980401
624.80688477	2.52941179
624.81091309	2.54901958
624.81500244	2.56862736
624.81915283	2.52941179
624.81915283	2.49019599
624.82330322	2.47058821
624.82751465	2.47058821
624.83135986	2.52941179
624.83135986	2.56862736
624.83557129	2.54901958
624.83966064	2.49019599
624.84375000	2.45098042
624.84790039	2.49019599
624.85198975	2.50980401
624.85198975	2.49019599
624.85607910	2.49019599
624.86010742	2.47058821
624.86419678	2.45098042
624.86419678	2.45098042
624.86828613	2.49019599
624.87243652	2.52941179
624.87652588	2.56862736
624.87652588	2.50980401
624.88055420	2.45098042
624.88464355	2.45098042
624.88897705	2.52941179
624.89300537	2.56862736
624.89703369	2.56862736
624.89703369	2.49019599
624.90124512	2.47058821
624.90515137	2.47058821
624.90917969	2.49019599
624.90917969	2.52941179
624.91326904	2.56862736
624.91748047	2.54901958
624.92150879	2.49019599
624.92150879	2.47058821
624.92565918	2.45098042
624.92974854	2.47058821
624.93389893	2.52941179
624.93792725	2.49019599
624.94201660	2.47058821
624.94201660	2.45098042
624.94610596	2.45098042
624.95031738	2.49019599
624.95428467	2.50980401
624.95428467	2.50980401
624.95874023	2.49019599
624.96252441	2.47058821
624.96691895	2.49019599
624.96691895	2.47058821
624.97064209	2.49019599
624.97497559	2.49019599
624.97888184	2.47058821
624.98321533	2.45098042
624.98712158	2.45098042
624.98712158	2.49019599
624.99114990	2.50980401
624.99530029	2.50980401
624.99969482	2.47058821
624.99969482	2.43137264
625.00354004	2.45098042
625.00750732	2.49019599
625.01171875	2.50980401
625.01171875	2.50980401
625.01580811	2.47058821
625.01983643	2.41176462
625.02404785	2.43137264
625.02807617	2.47058821
625.03222656	2.47058821
625.03222656	2.47058821
625.03631592	2.47058821
625.04028320	2.47058821
625.04443359	2.45098042
625.04443359	2.47058821
625.04852295	2.47058821
625.05279541	2.47058821
625.05676270	2.49019599
625.05676270	2.47058821
625.06079102	2.45098042
625.06488037	2.45098042
625.06896973	2.49019599
625.07318115	2.49019599
625.07739258	2.50980401
625.07739258	2.47058821
625.08142090	2.45098042
625.08538818	2.43137264
625.08966064	2.45098042
625.08966064	2.47058821
625.09362793	2.49019599
625.09765625	2.49019599
625.10180664	2.43137264
625.10180664	2.41176462
625.10595703	2.43137264
625.11004639	2.43137264
625.11004639	2.47058821
625.11401367	2.47058821
625.11828613	2.45098042
625.12231445	2.43137264
625.12231445	2.43137264
625.12640381	2.43137264
625.13049316	2.47058821
625.13458252	2.49019599
625.13458252	2.49019599
625.13873291	2.47058821
625.14306641	2.43137264
625.14691162	2.43137264
625.14691162	2.43137264
625.15118408	2.45098042
625.15502930	2.45098042
625.15502930	2.47058821
625.15917969	2.45098042
625.16320801	2.45098042
625.16760254	2.43137264
625.16760254	2.45098042
625.17138672	2.45098042
625.17553711	2.49019599
625.17962646	2.49019599
625.17962646	2.47058821
625.18371582	2.43137264
625.18780518	2.43137264
625.19195557	2.49019599
625.19195557	2.49019599
625.19604492	2.47058821
625.20019531	2.45098042
625.20019531	2.41176462
625.20416260	2.41176462
625.20825195	2.43137264
625.21246338	2.45098042
625.21246338	2.45098042
625.21649170	2.47058821
625.22058105	2.45098042
625.22467041	2.43137264
625.22467041	2.45098042
625.22869873	2.47058821
625.23309326	2.49019599
625.23706055	2.50980401
625.23706055	2.45098042
625.24102783	2.41176462
625.24523926	2.41176462
625.24523926	2.43137264
625.25018311	2.47058821
625.25323486	2.49019599
625.25744629	2.47058821
625.25744629	2.47058821
625.26159668	2.43137264
625.26562500	2.43137264
625.26977539	2.45098042
625.26977539	2.47058821
625.27380371	2.50980401
625.27789307	2.50980401
625.28204346	2.45098042
625.28204346	2.43137264
625.28619385	2.45098042
625.29022217	2.49019599
625.29022217	2.49019599
625.29425049	2.50980401
625.29840088	2.45098042
625.30249023	2.41176462
625.30249023	2.39215684
625.30657959	2.43137264
625.31072998	2.45098042
625.31475830	2.47058821
625.31475830	2.47058821
625.31878662	2.45098042
625.32293701	2.41176462
625.32702637	2.41176462
625.33111572	2.45098042
625.33532715	2.49019599
625.33532715	2.43137264
625.33959961	2.35294127
625.34344482	2.35294127
625.34753418	2.37254906
625.34753418	2.41176462
625.35162354	2.43137264
625.35571289	2.47058821
625.35980225	2.47058821
625.35980225	2.41176462
625.36389160	2.39215684
625.36804199	2.39215684
625.37213135	2.47058821
625.37622070	2.47058821
625.38031006	2.47058821
625.38031006	2.43137264
625.38446045	2.43137264
625.38873291	2.47058821
625.39257813	2.50980401
625.39257813	2.52941179
625.39672852	2.50980401
625.40100098	2.47058821
625.40490723	2.47058821
625.40490723	2.47058821
625.40911865	2.50980401
625.41314697	2.54901958
625.41741943	2.50980401
625.42132568	2.49019599
625.42541504	2.47058821
625.42541504	2.49019599
625.42956543	2.50980401
625.43365479	2.52941179
625.43780518	2.50980401
625.43780518	2.45098042
625.44177246	2.39215684
625.44586182	2.33333325
625.45001221	2.29411769
625.45001221	2.29411769
625.45416260	2.25490189
625.45880127	2.27450991
625.46240234	2.31372547
625.46636963	2.43137264
625.47039795	2.54901958
625.47039795	2.70588231
625.47448730	2.82352948
625.47888184	2.88235283
625.48291016	2.94117641
625.48291016	2.94117641
625.48699951	2.94117641
625.49084473	2.92156863
625.49517822	2.88235283
625.49517822	2.76470590
625.49914551	2.64705873
625.50329590	2.58823538
625.50726318	2.54901958
625.51147461	2.50980401
625.51550293	2.49019599
625.51550293	2.43137264
625.51989746	2.41176462
625.52374268	2.39215684
625.52777100	2.39215684
625.52777100	2.39215684
625.53204346	2.41176462
625.53594971	2.39215684
625.54010010	2.35294127
625.54010010	2.33333325
625.54418945	2.35294127
625.54833984	2.37254906
625.55242920	2.39215684
625.55645752	2.39215684
625.56060791	2.37254906
625.56060791	2.33333325
625.56463623	2.35294127
625.56890869	2.39215684
625.57287598	2.39215684
625.57287598	2.37254906
625.57690430	2.33333325
625.58154297	2.31372547
625.58520508	2.33333325
625.58520508	2.31372547
625.58923340	2.33333325
625.59356689	2.35294127
625.59753418	2.33333325
625.60156250	2.29411769
625.60559082	2.25490189
625.60559082	2.27450991
625.60974121	2.27450991
625.61383057	2.27450991
625.61791992	2.23529410
625.61791992	2.23529410
625.62213135	2.23529410
625.62622070	2.19607854
625.63018799	2.17647052
625.63018799	2.19607854
625.63433838	2.19607854
625.63854980	2.15686274
625.63854980	2.11764717
625.64251709	2.11764717
625.64660645	2.15686274
625.65081787	2.15686274
625.65081787	2.13725495
625.65478516	2.11764717
625.65887451	2.11764717
625.66296387	2.13725495
625.66296387	2.15686274
625.66717529	2.17647052
625.67120361	2.21568632
625.67541504	2.23529410
625.67541504	2.25490189
625.67932129	2.23529410
625.68353271	2.23529410
625.68353271	2.27450991
625.68756104	2.31372547
625.69158936	2.35294127
625.69598389	2.39215684
625.69598389	2.39215684
625.69982910	2.37254906
625.70385742	2.35294127
625.70806885	2.35294127
625.70806885	2.43137264
625.71221924	2.47058821
625.71624756	2.49019599
625.72052002	2.49019599
625.72052002	2.49019599
625.72454834	2.49019599
625.72857666	2.50980401
625.72857666	2.50980401
625.73260498	2.52941179
625.73681641	2.52941179
625.74078369	2.54901958
625.74078369	2.49019599
625.74505615	2.47058821
625.74896240	2.50980401
625.75317383	2.54901958
625.75317383	2.58823538
625.75726318	2.54901958
625.76153564	2.50980401
625.76568604	2.52941179
625.76568604	2.52941179
625.76989746	2.49019599
625.77355957	2.50980401
625.77355957	2.50980401
625.77770996	2.49019599
625.78173828	2.49019599
625.78601074	2.45098042
625.78601074	2.47058821
625.78997803	2.50980401
625.79406738	2.54901958
625.79821777	2.52941179
625.79821777	2.47058821
625.80230713	2.47058821
625.80639648	2.47058821
625.81042480	2.50980401
625.81042480	2.54901958
625.81469727	2.52941179
625.81878662	2.50980401
625.81878662	2.47058821
625.82269287	2.49019599
625.82678223	2.52941179
625.83111572	2.50980401
625.83111572	2.49019599
625.83520508	2.50980401
625.83923340	2.47058821
625.84320068	2.45098042
625.84320068	2.43137264
625.84735107	2.43137264
625.85144043	2.47058821
625.85546875	2.49019599
625.85968018	2.43137264
625.86376953	2.43137264
625.86376953	2.45098042
625.86779785	2.49019599
625.87182617	2.49019599
625.87597656	2.50980401
625.87597656	2.49019599
625.88000488	2.45098042
625.88433838	2.43137264
625.88842773	2.45098042
625.88842773	2.50980401
625.89233398	2.54901958
625.89654541	2.50980401
625.90063477	2.45098042
625.90472412	2.47058821
625.90881348	2.50980401
625.90881348	2.49019599
625.91278076	2.49019599
625.91699219	2.49019599
625.92108154	2.47058821
625.92108154	2.43137264
625.92517090	2.43137264
625.92926025	2.45098042
625.93347168	2.52941179
625.93347168	2.50980401
625.93737793	2.47058821
625.94152832	2.43137264
625.94592285	2.45098042
625.94976807	2.49019599
625.95397949	2.49019599
625.95397949	2.49019599
625.95806885	2.45098042
625.96209717	2.43137264
625.96624756	2.43137264
625.96624756	2.45098042
625.97015381	2.49019599
625.97448730	2.47058821
625.97882080	2.45098042
625.97882080	2.43137264
625.98248291	2.41176462
625.98669434	2.43137264
625.99066162	2.50980401
625.99499512	2.50980401
625.99902344	2.45098042
625.99902344	2.41176462
626.00305176	2.43137264
626.00708008	2.45098042
626.01135254	2.50980401
626.01135254	2.49019599
626.01544189	2.47058821
626.01934814	2.45098042
626.02343750	2.43137264
626.02343750	2.43137264
626.02752686	2.47058821
626.03161621	2.50980401
626.03576660	2.47058821
626.03985596	2.43137264
626.04394531	2.45098042
626.04394531	2.47058821
626.04797363	2.49019599
626.05224609	2.49019599
626.05633545	2.49019599
626.05633545	2.49019599
626.06042480	2.47058821
626.06445313	2.47058821
626.06866455	2.49019599
626.06866455	2.50980401
626.07299805	2.54901958
626.07702637	2.52941179
626.08148193	2.47058821
626.08502197	2.50980401
626.08911133	2.54901958
626.08911133	2.56862736
626.09332275	2.52941179
626.09722900	2.50980401
626.10131836	2.47058821
626.10131836	2.45098042
626.10559082	2.45098042
626.10949707	2.49019599
626.11383057	2.54901958
626.11383057	2.54901958
626.11767578	2.50980401
626.12200928	2.45098042
626.12597656	2.52941179
626.13000488	2.56862736
626.13433838	2.54901958
626.13433838	2.54901958
626.13818359	2.49019599
626.14221191	2.47058821
626.14636230	2.47058821
626.14636230	2.49019599
626.15051270	2.52941179
626.15454102	2.54901958
626.15869141	2.50980401
626.15869141	2.47058821
626.16271973	2.45098042
626.16699219	2.45098042
626.16699219	2.49019599
626.17089844	2.49019599
626.17504883	2.50980401
626.17919922	2.47058821
626.17919922	2.45098042
626.18316650	2.47058821
626.18731689	2.45098042
626.19140625	2.47058821
626.19140625	2.47058821
626.19543457	2.45098042
626.19964600	2.43137264
626.20367432	2.43137264
626.20367432	2.41176462
626.20782471	2.43137264
626.21191406	2.47058821
626.21191406	2.49019599
626.21618652	2.47058821
626.22009277	2.43137264
626.22424316	2.41176462
626.22424316	2.45098042
626.22821045	2.47058821
626.23272705	2.49019599
626.23657227	2.50980401
626.23657227	2.50980401
626.24060059	2.50980401
626.24468994	2.49019599
626.24877930	2.49019599
626.24877930	2.50980401
626.25280762	2.50980401
626.25689697	2.52941179
626.25689697	2.47058821
626.26110840	2.45098042
626.26513672	2.47058821
626.26928711	2.50980401
626.26928711	2.52941179
626.27331543	2.52941179
626.27740479	2.50980401
626.28155518	2.47058821
626.28155518	2.47058821
626.28558350	2.45098042
626.28973389	2.43137264
626.29382324	2.43137264
626.29382324	2.41176462
626.29785156	2.33333325
626.30206299	2.25490189
626.30206299	2.19607854
626.30615234	2.17647052
626.31018066	2.21568632
626.31427002	2.27450991
626.31427002	2.33333325
626.31842041	2.33333325
626.32244873	2.39215684
626.32653809	2.56862736
626.32653809	2.76470590
626.33062744	2.90196085
626.33477783	2.96078420
626.33880615	2.90196085
626.34289551	2.88235283
626.34716797	2.80392146
626.34716797	2.74509811
626.35125732	2.68627453
626.35528564	2.64705873
626.35931396	2.56862736
626.35931396	2.45098042
626.36340332	2.39215684
626.36773682	2.41176462
626.37164307	2.45098042
626.37164307	2.45098042
626.37567139	2.39215684
626.37976074	2.33333325
626.38397217	2.33333325
626.38806152	2.37254906
626.39221191	2.39215684
626.39221191	2.39215684
626.39624023	2.37254906
626.40057373	2.33333325
626.40441895	2.29411769
626.40441895	2.31372547
626.40850830	2.33333325
626.41259766	2.37254906
626.41668701	2.35294127
626.41668701	2.33333325
626.42077637	2.31372547
626.42486572	2.27450991
626.42901611	2.29411769
626.43310547	2.35294127
626.43719482	2.33333325
626.43719482	2.31372547
626.44128418	2.31372547
626.44537354	2.29411769
626.44958496	2.29411769
626.44958496	2.29411769
626.45355225	2.29411769
626.45764160	2.27450991
626.46185303	2.23529410
626.46185303	2.23529410
626.46600342	2.21568632
626.46997070	2.25490189
626.47418213	2.27450991
626.47814941	2.19607854
626.48223877	2.15686274
626.48223877	2.13725495
626.48632813	2.15686274
626.49041748	2.17647052
626.49481201	2.19607854
626.49481201	2.19607854
626.49902344	2.15686274
626.50292969	2.11764717
626.50708008	2.09803915
626.50708008	2.15686274
626.51110840	2.21568632
626.51531982	2.21568632
626.51940918	2.19607854
626.52355957	2.17647052
626.52734375	2.21568632
626.52734375	2.27450991
626.53137207	2.33333325
626.53558350	2.39215684
626.53967285	2.37254906
626.53967285	2.33333325
626.54376221	2.35294127
626.54785156	2.41176462
626.55194092	2.47058821
626.55194092	2.52941179
626.55615234	2.50980401
626.56005859	2.47058821
626.56414795	2.49019599
626.56829834	2.56862736
626.57238770	2.60784316
626.57238770	2.62745094
626.57659912	2.60784316
626.58081055	2.56862736
626.58471680	2.54901958
626.58471680	2.56862736
626.58880615	2.62745094
626.59295654	2.64705873
626.59710693	2.64705873
626.59710693	2.60784316
626.60101318	2.58823538
626.60510254	2.54901958
626.60937500	2.62745094
626.61328125	2.68627453
626.61730957	2.64705873
626.61730957	2.56862736
626.62152100	2.52941179
626.62548828	2.56862736
626.62988281	2.58823538
626.62988281	2.62745094
626.63366699	2.60784316
626.63787842	2.56862736
626.64202881	2.54901958
626.64202881	2.54901958
626.64617920	2.58823538
626.65032959	2.60784316
626.65032959	2.58823538
626.65423584	2.56862736
626.65838623	2.52941179
626.66247559	2.50980401
626.66247559	2.52941179
626.66650391	2.52941179
626.67065430	2.54901958
626.67486572	2.52941179
626.67486572	2.50980401
626.67883301	2.49019599
626.68292236	2.47058821
626.68707275	2.47058821
626.68707275	2.50980401
626.69116211	2.52941179
626.69537354	2.54901958
626.69537354	2.49019599
626.69940186	2.49019599
626.70343018	2.47058821
626.70758057	2.47058821
626.70758057	2.49019599
626.71148682	2.50980401
626.71594238	2.49019599
626.71978760	2.47058821
626.71978760	2.45098042
626.72387695	2.45098042
