770.78607178	2.13725495
770.79016113	2.13725495
770.79443359	2.15686274
770.79827881	2.15686274
770.79827881	2.17647052
770.80255127	2.19607854
770.80645752	2.19607854
770.81072998	2.21568632
770.81072998	2.21568632
770.81500244	2.23529410
770.81890869	2.25490189
770.82299805	2.25490189
770.82708740	2.27450991
770.82708740	2.27450991
770.83117676	2.29411769
770.83532715	2.29411769
770.83947754	2.31372547
770.83947754	2.31372547
770.84356689	2.33333325
770.84735107	2.33333325
770.85150146	2.35294127
770.85552979	2.35294127
770.85955811	2.37254906
770.86383057	2.37254906
770.86779785	2.37254906
770.86779785	2.37254906
770.87188721	2.39215684
770.87603760	2.39215684
770.88018799	2.39215684
770.88427734	2.39215684
770.88836670	2.39215684
770.89239502	2.41176462
770.89654541	2.41176462
770.89654541	2.41176462
770.90081787	2.41176462
770.90490723	2.41176462
770.90899658	2.41176462
770.91296387	2.41176462
770.91699219	2.39215684
770.92102051	2.39215684
770.92517090	2.39215684
770.92517090	2.39215684
770.92926025	2.39215684
770.93328857	2.39215684
770.93743896	2.39215684
770.94152832	2.37254906
770.94567871	2.37254906
770.94964600	2.37254906
770.95379639	2.35294127
770.95379639	2.35294127
770.95794678	2.35294127
770.96215820	2.33333325
770.96643066	2.33333325
770.96643066	2.33333325
770.97058105	2.31372547
770.97436523	2.31372547
770.97845459	2.31372547
770.98266602	2.29411769
770.98266602	2.29411769
770.98663330	2.27450991
770.99066162	2.27450991
770.99475098	2.27450991
770.99475098	2.25490189
770.99896240	2.25490189
771.00292969	2.25490189
771.00708008	2.23529410
771.01135254	2.23529410
771.01135254	2.21568632
771.01538086	2.21568632
771.01940918	2.21568632
771.02349854	2.19607854
771.02349854	2.19607854
771.02764893	2.19607854
771.03192139	2.17647052
771.03588867	2.17647052
771.03997803	2.17647052
771.03997803	2.15686274
771.04388428	2.15686274
771.04833984	2.15686274
771.05218506	2.13725495
771.05218506	2.13725495
771.05627441	2.13725495
771.06042480	2.13725495
771.06457520	2.11764717
771.06848145	2.11764717
771.06848145	2.11764717
771.07263184	2.09803915
771.07672119	2.09803915
771.08111572	2.09803915
771.08111572	2.07843137
771.08489990	2.07843137
771.08929443	2.07843137
771.09320068	2.05882359
771.09747314	2.05882359
771.09747314	2.05882359
771.10137939	2.03921580
771.10540771	2.03921580
771.10955811	2.03921580
771.10955811	2.01960778
771.11376953	2.01960778
771.11804199	2.01960778
771.12176514	2.00000000
771.12603760	2.00000000
771.12603760	1.98039210
771.13000488	1.98039210
771.13403320	1.98039210
771.13824463	1.96078432
771.13824463	1.96078432
771.14233398	1.94117641
771.14630127	1.94117641
771.15045166	1.94117641
771.15484619	1.92156863
771.15484619	1.92156863
771.15869141	1.92156863
771.16290283	1.90196073
771.16680908	1.90196073
771.16680908	1.90196073
771.17089844	1.90196073
771.17504883	1.90196073
771.17919922	1.90196073
771.18334961	1.90196073
771.18334961	1.90196073
771.18737793	1.90196073
771.19146729	1.92156863
771.19555664	1.92156863
771.19555664	1.92156863
771.19952393	1.92156863
771.20367432	1.94117641
771.20788574	1.94117641
771.21203613	1.96078432
771.21630859	1.98039210
771.22033691	1.98039210
771.22436523	2.00000000
771.22436523	2.00000000
771.22827148	2.01960778
771.23266602	2.01960778
771.23651123	2.03921580
771.24053955	2.05882359
771.24462891	2.07843137
771.24877930	2.07843137
771.25286865	2.09803915
771.25286865	2.09803915
771.25695801	2.11764717
771.26116943	2.11764717
771.26519775	2.13725495
771.26928711	2.15686274
771.27331543	2.17647052
771.27764893	2.17647052
771.28173828	2.19607854
771.28173828	2.19607854
771.28594971	2.19607854
771.28967285	2.21568632
771.29382324	2.21568632
771.29821777	2.23529410
771.30206299	2.23529410
771.30603027	2.23529410
771.31030273	2.25490189
771.31030273	2.25490189
771.31433105	2.25490189
771.31842041	2.25490189
771.32257080	2.25490189
771.32257080	2.25490189
771.32653809	2.25490189
771.33081055	2.27450991
771.33477783	2.27450991
771.33898926	2.27450991
771.33898926	2.25490189
771.34289551	2.25490189
771.34729004	2.25490189
771.35156250	2.25490189
771.35156250	2.25490189
771.35534668	2.25490189
771.35931396	2.25490189
771.36340332	2.23529410
771.36761475	2.23529410
771.36761475	2.23529410
771.37170410	2.23529410
771.37579346	2.21568632
771.37982178	2.21568632
771.37982178	2.19607854
771.38397217	2.19607854
771.38806152	2.19607854
771.39215088	2.17647052
771.39630127	2.17647052
771.39630127	2.15686274
771.40039063	2.15686274
771.40447998	2.13725495
771.40856934	2.13725495
771.40856934	2.13725495
771.41271973	2.11764717
771.41680908	2.11764717
771.42089844	2.09803915
771.42492676	2.09803915
771.42492676	2.07843137
771.42907715	2.07843137
771.43316650	2.05882359
771.43725586	2.05882359
771.43725586	2.03921580
771.44128418	2.03921580
771.44549561	2.01960778
771.44946289	2.01960778
771.45355225	2.00000000
771.45355225	1.98039210
771.45764160	1.98039210
771.46179199	1.96078432
771.46588135	1.96078432
771.46588135	1.94117641
771.46997070	1.94117641
771.47430420	1.92156863
771.47821045	1.92156863
771.48242188	1.90196073
771.48242188	1.88235295
771.48626709	1.88235295
771.49047852	1.86274505
771.49456787	1.86274505
771.49456787	1.84313726
771.49871826	1.84313726
771.50262451	1.82352936
771.50677490	1.82352936
771.51092529	1.80392158
771.51092529	1.78431368
771.51507568	1.78431368
771.51922607	1.76470590
771.52368164	1.76470590
771.52368164	1.74509799
771.52734375	1.74509799
771.53161621	1.72549021
771.53582764	1.72549021
771.53979492	1.70588231
771.53979492	1.70588231
771.54370117	1.68627453
771.54797363	1.68627453
771.55194092	1.66666663
771.55194092	1.66666663
771.55590820	1.64705884
771.56005859	1.64705884
771.56433105	1.62745094
771.56829834	1.62745094
771.56829834	1.60784316
771.57238770	1.60784316
771.57641602	1.58823526
771.58074951	1.58823526
771.58074951	1.56862748
771.58471680	1.56862748
771.58886719	1.54901958
771.59283447	1.54901958
771.59710693	1.52941179
771.60131836	1.52941179
771.60522461	1.50980389
771.60931396	1.50980389
771.60931396	1.50980389
771.61322021	1.49019611
771.61773682	1.49019611
771.62158203	1.49019611
771.62561035	1.49019611
771.62969971	1.49019611
771.63385010	1.49019611
771.63787842	1.49019611
771.63787842	1.49019611
771.64215088	1.49019611
771.64605713	1.49019611
771.65032959	1.49019611
771.65435791	1.49019611
771.65869141	1.50980389
771.66265869	1.50980389
771.66662598	1.50980389
771.66662598	1.50980389
771.67071533	1.52941179
771.67474365	1.52941179
771.67889404	1.50980389
771.68304443	1.49019611
771.68701172	1.47058821
771.69116211	1.45098042
771.69537354	1.41176474
771.69537354	1.39215684
771.69940186	1.35294116
771.70355225	1.31372547
771.70751953	1.29411769
771.70751953	1.25490201
771.71166992	1.21568632
771.71575928	1.17647064
771.71997070	1.13725495
771.72418213	1.09803927
771.72418213	1.05882359
771.72802734	1.01960790
771.73223877	0.98039216
771.73626709	0.96078432
771.73626709	0.92156863
771.74035645	0.88235295
771.74456787	0.84313726
771.74871826	0.82352942
771.75268555	0.78431374
771.75268555	0.76470590
771.75671387	0.72549021
771.76080322	0.70588237
771.76489258	0.68627453
771.76489258	0.66666669
771.76910400	0.62745100
771.77313232	0.60784316
771.77734375	0.58823532
771.78161621	0.56862748
771.78161621	0.54901963
771.78564453	0.52941179
771.78961182	0.50980395
771.79376221	0.49019608
771.79376221	0.47058824
771.79772949	0.47058824
771.80181885	0.45098040
771.80578613	0.43137255
771.80999756	0.41176471
771.80999756	0.39215687
771.81420898	0.37254903
771.81817627	0.35294119
771.82238770	0.33333334
771.82238770	0.31372550
771.82635498	0.29411766
771.83068848	0.29411766
771.83465576	0.27450982
771.83874512	0.25490198
771.83874512	0.23529412
771.84271240	0.21568628
771.84722900	0.19607843
771.85095215	0.17647059
771.85095215	0.15686275
771.85498047	0.13725491
771.85913086	0.11764706
771.86340332	0.09803922
771.86755371	0.09803922
771.86755371	0.07843138
771.87200928	0.05882353
771.87567139	0.03921569
771.87963867	0.03921569
771.87963867	0.01960784
771.88372803	0.00000000
771.88793945	0.00000000
771.89215088	0.00000000
771.89617920	0.00000000
771.89617920	0.00000000
771.90020752	0.00000000
771.90429688	0.00000000
771.90850830	0.00000000
771.90850830	0.00000000
771.91265869	0.00000000
771.91656494	0.00000000
771.92077637	0.00000000
771.92480469	0.00000000
771.92480469	0.00000000
771.92889404	0.00000000
771.93298340	0.00000000
771.93725586	0.00000000
771.93725586	0.00000000
771.94146729	0.00000000
771.94537354	0.00000000
771.94946289	0.00000000
771.95355225	0.00000000
771.95758057	0.00000000
771.96160889	0.00000000
771.96575928	0.00000000
771.96575928	0.00000000
771.96972656	0.00000000
771.97387695	0.00000000
771.97802734	0.00000000
771.98229980	0.00000000
771.98626709	0.01960784
771.99041748	0.01960784
771.99444580	0.01960784
771.99444580	0.03921569
771.99853516	0.03921569
772.00256348	0.05882353
772.00659180	0.05882353
772.01074219	0.07843138
772.01525879	0.07843138
772.01898193	0.09803922
772.02294922	0.11764706
772.02294922	0.11764706
772.02709961	0.13725491
772.03161621	0.13725491
772.03533936	0.15686275
772.03936768	0.17647059
772.04357910	0.19607843
772.04760742	0.19607843
772.05187988	0.21568628
772.05187988	0.23529412
772.05584717	0.23529412
772.05993652	0.25490198
772.06427002	0.27450982
772.06427002	0.29411766
772.06817627	0.31372550
772.07232666	0.33333334
772.07635498	0.35294119
772.08050537	0.37254903
772.08050537	0.39215687
772.08447266	0.41176471
772.08874512	0.43137255
772.09271240	0.45098040
772.09271240	0.47058824
772.09686279	0.49019608
772.10083008	0.50980395
772.10491943	0.54901963
772.10913086	0.56862748
772.10913086	0.58823532
772.11315918	0.62745100
772.11724854	0.64705884
772.12139893	0.66666669
772.12139893	0.70588237
772.12554932	0.72549021
772.12951660	0.76470590
772.13366699	0.78431374
772.13769531	0.80392158
772.13769531	0.84313726
772.14190674	0.86274511
772.14587402	0.90196079
772.14996338	0.92156863
772.14996338	0.94117647
772.15411377	0.98039216
772.15832520	1.00000000
772.16259766	1.01960790
772.16644287	1.05882359
772.16644287	1.07843137
772.17047119	1.11764705
772.17462158	1.13725495
772.17877197	1.15686274
772.17877197	1.17647064
772.18292236	1.21568632
772.18707275	1.23529410
772.19104004	1.25490201
772.19506836	1.27450979
772.19506836	1.31372547
772.19909668	1.33333337
772.20336914	1.35294116
772.20733643	1.37254906
772.20733643	1.39215684
772.21160889	1.41176474
772.21575928	1.43137252
772.21966553	1.45098042
772.22381592	1.47058821
772.22381592	1.49019611
772.22796631	1.50980389
772.23217773	1.52941179
772.23614502	1.54901958
772.23614502	1.54901958
772.24005127	1.56862748
772.24420166	1.58823526
772.24835205	1.58823526
772.25250244	1.60784316
772.25250244	1.62745094
772.25646973	1.62745094
772.26055908	1.64705884
772.26507568	1.64705884
772.26507568	1.66666663
772.26885986	1.66666663
772.27288818	1.66666663
772.27709961	1.66666663
772.28137207	1.68627453
772.28137207	1.68627453
772.28521729	1.68627453
772.28930664	1.68627453
772.29333496	1.68627453
772.29333496	1.68627453
772.29772949	1.70588231
772.30157471	1.70588231
772.30572510	1.70588231
772.30993652	1.70588231
772.31384277	1.70588231
772.31799316	1.70588231
772.32220459	1.70588231
772.32220459	1.70588231
772.32604980	1.70588231
772.33050537	1.70588231
772.33428955	1.70588231
772.33837891	1.70588231
772.34246826	1.70588231
772.34655762	1.70588231
772.35070801	1.70588231
772.35070801	1.70588231
772.35479736	1.70588231
772.35888672	1.70588231
772.36291504	1.70588231
772.36706543	1.68627453
772.37127686	1.68627453
772.37530518	1.68627453
772.37945557	1.68627453
772.37945557	1.68627453
772.38342285	1.68627453
772.38751221	1.68627453
772.39166260	1.68627453
772.39569092	1.68627453
772.39990234	1.66666663
772.40399170	1.66666663
772.40808105	1.66666663
772.40808105	1.66666663
772.41217041	1.66666663
772.41638184	1.66666663
772.42034912	1.66666663
772.42443848	1.66666663
772.42864990	1.66666663
772.43261719	1.66666663
772.43670654	1.66666663
772.43670654	1.66666663
772.44079590	1.66666663
772.44494629	1.66666663
772.44903564	1.66666663
772.44903564	1.66666663
772.45300293	1.66666663
772.45715332	1.66666663
772.46130371	1.66666663
772.46539307	1.66666663
772.46539307	1.66666663
772.46942139	1.66666663
772.47351074	1.66666663
772.47766113	1.66666663
772.47766113	1.66666663
772.48199463	1.66666663
772.48602295	1.66666663
772.49011230	1.68627453
772.49407959	1.68627453
772.49407959	1.68627453
772.49859619	1.68627453
772.50231934	1.68627453
772.50622559	1.68627453
772.50622559	1.68627453
772.51049805	1.68627453
772.51458740	1.70588231
772.51867676	1.70588231
772.52276611	1.70588231
772.52276611	1.70588231
772.52679443	1.72549021
772.53131104	1.72549021
772.53503418	1.72549021
772.53503418	1.74509799
772.53906250	1.74509799
772.54327393	1.76470590
772.54754639	1.78431368
772.55163574	1.78431368
772.55163574	1.80392158
772.55560303	1.82352936
772.55963135	1.84313726
772.56378174	1.86274505
772.56378174	1.88235295
772.56781006	1.90196073
772.57189941	1.92156863
772.57604980	1.94117641
772.58007813	1.96078432
772.58007813	2.00000000
772.58422852	2.01960778
772.58837891	2.03921580
772.59246826	2.07843137
772.59246826	2.09803915
772.59649658	2.11764717
772.60064697	2.15686274
772.60467529	2.17647052
772.60882568	2.19607854
772.60882568	2.23529410
772.61285400	2.25490189
772.61718750	2.27450991
772.62109375	2.29411769
772.62109375	2.33333325
772.62524414	2.35294127
772.62933350	2.37254906
772.63342285	2.41176462
772.63751221	2.43137264
772.63751221	2.45098042
772.64154053	2.47058821
772.64569092	2.49019599
772.64965820	2.50980401
772.64965820	2.54901958
772.65380859	2.56862736
772.65789795	2.58823538
772.66204834	2.60784316
772.66607666	2.64705873
772.67022705	2.66666675
772.67443848	2.66666675
772.67864990	2.68627453
772.67864990	2.70588231
772.68243408	2.72549009
772.68664551	2.72549009
772.69067383	2.74509811
772.69476318	2.76470590
772.69885254	2.76470590
772.70294189	2.78431368
772.70709229	2.78431368
772.70709229	2.80392146
772.71118164	2.80392146
772.71533203	2.80392146
772.71923828	2.80392146
772.72338867	2.82352948
772.72766113	2.82352948
772.73181152	2.82352948
772.73583984	2.82352948
772.73583984	2.82352948
772.73992920	2.82352948
772.74389648	2.84313726
772.74810791	2.84313726
772.75219727	2.84313726
772.75628662	2.84313726
772.76043701	2.84313726
772.76458740	2.84313726
772.76458740	2.84313726
772.76855469	2.82352948
772.77258301	2.82352948
772.77667236	2.82352948
772.78088379	2.82352948
772.78497314	2.82352948
772.78894043	2.82352948
772.79315186	2.82352948
772.79315186	2.80392146
772.79736328	2.80392146
772.80151367	2.80392146
772.80554199	2.80392146
772.80554199	2.80392146
772.80963135	2.80392146
772.81365967	2.80392146
772.81768799	2.78431368
772.82177734	2.78431368
772.82177734	2.78431368
772.82574463	2.78431368
772.83013916	2.78431368
772.83416748	2.78431368
772.83416748	2.78431368
772.83813477	2.78431368
772.84228516	2.76470590
772.84631348	2.76470590
772.85046387	2.76470590
772.85046387	2.76470590
772.85461426	2.76470590
772.85870361	2.76470590
772.86273193	2.76470590
772.86273193	2.76470590
772.86700439	2.76470590
772.87115479	2.76470590
772.87530518	2.76470590
772.87921143	2.76470590
772.87921143	2.76470590
772.88342285	2.76470590
772.88726807	2.76470590
772.89147949	2.76470590
772.89147949	2.76470590
772.89538574	2.76470590
772.89959717	2.76470590
772.90368652	2.76470590
772.90783691	2.76470590
772.90783691	2.76470590
772.91192627	2.76470590
772.91595459	2.76470590
772.92010498	2.76470590
772.92010498	2.76470590
772.92413330	2.76470590
772.92828369	2.76470590
772.93249512	2.76470590
772.93670654	2.76470590
772.93670654	2.76470590
772.94067383	2.76470590
772.94470215	2.74509811
772.94891357	2.74509811
772.94891357	2.74509811
772.95294189	2.74509811
772.95697021	2.72549009
772.96099854	2.72549009
772.96520996	2.72549009
772.96520996	2.70588231
772.96929932	2.70588231
772.97326660	2.70588231
772.97741699	2.68627453
772.97741699	2.68627453
772.98162842	2.68627453
772.98553467	2.68627453
772.98968506	2.68627453
772.99407959	2.70588231
772.99407959	2.72549009
772.99822998	2.74509811
773.00213623	2.76470590
773.00604248	2.80392146
773.00604248	2.84313726
773.01013184	2.88235283
773.01434326	2.94117641
773.01843262	2.98039222
773.02252197	3.03921580
773.02252197	3.07843137
773.02655029	3.13725495
773.03070068	3.19607854
773.03479004	3.25490189
773.03479004	3.31372547
773.03881836	3.37254906
773.04290771	3.43137264
773.04718018	3.49019599
773.05120850	3.60784316
773.05548096	3.66666675
773.05950928	3.72549009
773.06359863	3.78431368
773.06359863	3.84313726
773.06756592	3.90196085
773.07165527	3.96078420
773.07568359	4.00000000
773.07983398	4.11764717
773.08398438	4.17647076
773.08807373	4.21568632
773.09216309	4.27450991
773.09216309	4.31372547
773.09631348	4.37254906
773.10028076	4.41176462
773.10443115	4.45098019
773.10858154	4.54901981
773.11254883	4.58823538
773.11669922	4.62745094
773.12103271	4.66666651
773.12103271	4.68627453
773.12512207	4.72549009
773.12896729	4.76470566
773.13305664	4.78431368
773.13708496	4.84313726
773.14129639	4.86274529
773.14544678	4.88235283
773.14953613	4.90196085
773.14953613	4.92156839
773.15350342	4.94117641
773.15771484	4.96078444
773.16180420	4.98039198
773.16583252	4.98039198
773.16992188	4.98039198
773.17401123	4.98039198
773.17822266	4.98039198
773.17822266	4.98039198
773.18249512	4.98039198
773.18652344	4.98039198
773.19042969	4.98039198
773.19042969	4.98039198
773.19458008	4.98039198
773.19873047	4.98039198
773.20269775	4.98039198
773.20684814	4.96078444
773.20684814	4.96078444
773.21087646	4.94117641
773.21502686	4.94117641
773.21917725	4.92156839
773.21917725	4.92156839
773.22332764	4.90196085
773.22729492	4.88235283
773.23156738	4.88235283
773.23553467	4.86274529
773.23553467	4.84313726
773.23956299	4.82352924
773.24365234	4.80392170
773.24804688	4.78431368
773.24804688	4.76470566
773.25201416	4.74509811
773.25604248	4.72549009
773.26007080	4.70588255
773.26422119	4.68627453
773.26422119	4.66666651
773.26831055	4.64705896
773.27227783	4.62745094
773.27642822	4.60784292
773.27642822	4.58823538
773.28070068	4.56862736
773.28472900	4.54901981
773.28881836	4.50980377
773.29278564	4.49019623
773.29278564	4.47058821
773.29718018	4.45098019
773.30108643	4.43137264
773.30541992	4.41176462
773.30541992	4.37254906
773.30957031	4.35294104
773.31353760	4.33333349
773.31762695	4.31372547
773.32153320	4.29411745
773.32153320	4.25490189
773.32562256	4.23529434
773.32965088	4.21568632
773.33380127	4.19607830
773.33380127	4.15686274
773.33801270	4.13725471
773.34204102	4.11764717
773.34606934	4.09803915
773.35040283	4.07843161
773.35040283	4.03921556
773.35430908	4.01960802
773.35845947	4.00000000
773.36236572	3.98039222
773.36236572	3.96078420
773.36657715	3.92156863
773.37066650	3.90196085
773.37506104	3.88235283
773.37921143	3.86274505
773.37921143	3.84313726
773.38293457	3.82352948
773.38714600	3.80392146
773.39117432	3.76470590
773.39117432	3.74509811
773.39532471	3.72549009
773.39941406	3.70588231
773.40344238	3.68627453
773.40753174	3.66666675
773.40753174	3.64705873
773.41168213	3.62745094
773.41571045	3.60784316
773.41979980	3.58823538
773.41979980	3.56862736
773.42388916	3.54901958
773.42816162	3.52941179
773.43218994	3.50980401
773.43627930	3.47058821
773.44055176	3.45098042
773.44482422	3.45098042
773.44860840	3.43137264
773.44860840	3.41176462
773.45257568	3.39215684
773.45666504	3.39215684
773.46087646	3.37254906
773.46520996	3.35294127
773.46887207	3.35294127
773.47302246	3.33333325
773.47729492	3.33333325
773.47729492	3.33333325
773.48138428	3.33333325
773.48529053	3.31372547
773.48944092	3.31372547
773.49353027	3.31372547
773.49835205	3.31372547
773.50201416	3.31372547
773.50616455	3.31372547
773.50616455	3.29411769
773.50994873	3.29411769
773.51416016	3.29411769
773.51818848	3.29411769
773.52233887	3.29411769
773.52642822	3.29411769
773.53063965	3.31372547
773.53448486	3.31372547
773.53448486	3.31372547
773.53857422	3.31372547
773.54272461	3.31372547
773.54699707	3.31372547
773.55102539	3.31372547
773.55511475	3.31372547
773.55902100	3.31372547
773.56359863	3.31372547
773.56359863	3.31372547
773.56756592	3.31372547
773.57141113	3.31372547
773.57562256	3.31372547
773.57562256	3.31372547
773.57952881	3.31372547
773.58367920	3.31372547
773.58782959	3.31372547
773.59185791	3.31372547
773.59185791	3.31372547
773.59594727	3.31372547
773.60009766	3.29411769
773.60418701	3.29411769
773.60418701	3.29411769
773.60839844	3.29411769
773.61236572	3.29411769
773.61645508	3.27450991
773.62060547	3.27450991
773.62060547	3.27450991
773.62463379	3.25490189
773.62884521	3.25490189
773.63281250	3.25490189
773.63281250	3.23529410
773.63702393	3.23529410
773.64099121	3.23529410
773.64508057	3.21568632
773.64941406	3.21568632
773.64941406	3.21568632
773.65332031	3.19607854
773.65734863	3.19607854
773.66149902	3.19607854
773.66149902	3.17647052
773.66552734	3.17647052
773.66967773	3.17647052
773.67388916	3.17647052
773.67785645	3.15686274
773.67785645	3.15686274
773.68200684	3.15686274
773.68615723	3.15686274
773.69055176	3.13725495
773.69055176	3.13725495
773.69458008	3.13725495
773.69842529	3.13725495
773.70239258	3.11764717
773.70654297	3.11764717
773.70654297	3.11764717
773.71075439	3.11764717
773.71508789	3.09803915
773.71893311	3.09803915
773.71893311	3.09803915
773.72290039	3.07843137
773.72698975	3.07843137
773.73126221	3.07843137
773.73529053	3.05882359
773.73529053	3.05882359
773.73931885	3.05882359
773.74353027	3.03921580
773.74786377	3.03921580
773.74786377	3.03921580
773.75195313	3.01960778
773.75592041	3.01960778
773.75982666	3.01960778
773.76397705	3.00000000
773.76397705	3.00000000
773.76824951	2.98039222
773.77203369	2.98039222
773.77630615	2.96078420
773.77630615	2.96078420
773.78045654	2.96078420
773.78442383	2.94117641
773.78863525	2.94117641
773.79254150	2.92156863
773.79254150	2.92156863
773.79675293	2.90196085
773.80084229	2.90196085
773.80493164	2.88235283
773.80493164	2.88235283
773.80895996	2.86274505
773.81323242	2.86274505
773.81744385	2.84313726
773.82153320	2.84313726
773.82556152	2.82352948
773.82946777	2.82352948
773.83361816	2.80392146
773.83361816	2.80392146
773.83764648	2.80392146
773.84185791	2.78431368
773.84582520	2.78431368
773.84991455	2.76470590
773.85406494	2.76470590
773.85821533	2.74509811
773.86230469	2.74509811
773.86230469	2.74509811
773.86633301	2.72549009
773.87042236	2.72549009
773.87451172	2.70588231
773.87872314	2.70588231
773.88287354	2.68627453
773.88708496	2.68627453
773.89099121	2.66666675
773.89099121	2.66666675
773.89508057	2.66666675
773.89910889	2.66666675
773.90332031	2.64705873
773.90734863	2.64705873
773.91143799	2.64705873
773.91546631	2.64705873
773.91955566	2.64705873
773.91955566	2.64705873
773.92364502	2.64705873
773.92779541	2.64705873
773.93200684	2.64705873
773.93200684	2.64705873
773.93591309	2.66666675
773.94006348	2.66666675
773.94421387	2.66666675
773.94848633	2.66666675
773.94848633	2.68627453
773.95227051	2.68627453
773.95642090	2.68627453
773.96057129	2.70588231
773.96057129	2.70588231
773.96496582	2.70588231
773.96881104	2.72549009
773.97277832	2.72549009
773.97686768	2.74509811
773.97686768	2.74509811
773.98132324	2.74509811
773.98516846	2.76470590
773.98931885	2.76470590
773.98931885	2.76470590
773.99328613	2.78431368
773.99755859	2.78431368
774.00152588	2.78431368
774.00579834	2.80392146
774.00579834	2.80392146
774.00958252	2.80392146
774.01409912	2.82352948
774.01794434	2.82352948
774.01794434	2.82352948
774.02191162	2.84313726
774.02600098	2.84313726
774.03021240	2.84313726
774.03436279	2.84313726
774.03436279	2.84313726
774.03839111	2.86274505
774.04235840	2.86274505
774.04656982	2.86274505
774.04656982	2.86274505
774.05065918	2.86274505
774.05480957	2.86274505
774.05883789	2.86274505
774.06292725	2.86274505
774.06292725	2.86274505
774.06713867	2.86274505
774.07122803	2.86274505
774.07556152	2.86274505
774.07556152	2.86274505
774.07934570	2.86274505
774.08343506	2.86274505
774.08746338	2.86274505
774.09167480	2.84313726
774.09167480	2.84313726
774.09570313	2.84313726
774.09979248	2.84313726
774.10394287	2.82352948
774.10394287	2.82352948
774.10809326	2.82352948
774.11199951	2.82352948
774.11633301	2.80392146
774.12030029	2.80392146
774.12030029	2.78431368
774.12445068	2.78431368
774.12847900	2.78431368
774.13275146	2.76470590
774.13275146	2.76470590
774.13690186	2.74509811
774.14086914	2.74509811
774.14495850	2.72549009
774.14910889	2.72549009
774.14910889	2.70588231
774.15313721	2.70588231
774.15722656	2.68627453
774.16125488	2.68627453
774.16125488	2.66666675
774.16534424	2.66666675
774.16943359	2.64705873
774.17352295	2.64705873
774.17779541	2.62745094
774.18188477	2.60784316
774.18579102	2.60784316
774.18994141	2.58823538
774.18994141	2.58823538
774.19433594	2.56862736
774.19836426	2.56862736
774.20227051	2.54901958
774.20635986	2.52941179
774.21038818	2.52941179
774.21459961	2.50980401
774.21868896	2.50980401
774.21868896	2.49019599
774.22271729	2.49019599
774.22686768	2.47058821
774.23120117	2.47058821
774.23504639	2.45098042
774.23901367	2.45098042
774.24316406	2.43137264
774.24780273	2.43137264
774.24780273	2.43137264
774.25146484	2.41176462
774.25543213	2.41176462
774.25976563	2.41176462
774.26391602	2.39215684
774.26782227	2.39215684
774.27178955	2.37254906
774.27593994	2.37254906
774.27593994	2.37254906
774.28015137	2.35294127
774.28417969	2.35294127
774.28826904	2.35294127
774.29229736	2.33333325
774.29644775	2.33333325
774.30053711	2.31372547
774.30474854	2.31372547
774.30474854	2.31372547
774.30865479	2.29411769
774.31280518	2.29411769
774.31719971	2.29411769
774.31719971	2.29411769
774.32128906	2.27450991
774.32543945	2.27450991
774.32952881	2.27450991
774.33331299	2.25490189
774.33331299	2.25490189
774.33746338	2.25490189
774.34136963	2.25490189
774.34552002	2.23529410
774.34552002	2.23529410
774.34979248	2.23529410
774.35375977	2.23529410
774.35791016	2.23529410
774.36212158	2.23529410
774.36212158	2.23529410
774.36608887	2.23529410
774.37011719	2.23529410
774.37432861	2.23529410
774.37432861	2.23529410
774.37829590	2.23529410
774.38244629	2.25490189
774.38665771	2.25490189
774.39093018	2.25490189
774.39093018	2.25490189
774.39483643	2.27450991
774.39880371	2.27450991
774.40295410	2.29411769
774.40295410	2.29411769
774.40704346	2.31372547
774.41119385	2.31372547
774.41534424	2.33333325
774.41925049	2.33333325
774.41925049	2.35294127
774.42340088	2.37254906
774.42749023	2.37254906
774.43164063	2.39215684
774.43164063	2.39215684
774.43566895	2.41176462
774.43981934	2.43137264
774.44390869	2.43137264
774.44824219	2.45098042
774.44824219	2.47058821
774.45233154	2.47058821
774.45654297	2.49019599
774.46032715	2.49019599
774.46032715	2.50980401
774.46447754	2.52941179
774.46844482	2.52941179
774.47271729	2.54901958
774.47662354	2.54901958
774.47662354	2.56862736
774.48077393	2.56862736
774.48492432	2.58823538
774.48889160	2.58823538
774.48889160	2.60784316
774.49304199	2.60784316
774.49749756	2.62745094
774.50128174	2.62745094
774.50543213	2.62745094
774.50543213	2.64705873
774.50939941	2.64705873
774.51385498	2.64705873
774.51788330	2.66666675
774.51788330	2.66666675
774.52166748	2.66666675
774.52581787	2.66666675
774.52990723	2.66666675
774.53405762	2.66666675
774.53814697	2.66666675
774.54223633	2.68627453
774.54632568	2.68627453
774.54632568	2.68627453
774.55047607	2.68627453
774.55450439	2.68627453
774.55853271	2.68627453
774.56268311	2.66666675
774.56677246	2.66666675
774.57098389	2.66666675
774.57531738	2.66666675
774.57531738	2.66666675
774.57928467	2.66666675
774.58319092	2.66666675
774.58740234	2.66666675
774.59136963	2.64705873
774.59539795	2.64705873
774.59960938	2.64705873
774.60363770	2.64705873
774.60363770	2.64705873
774.60778809	2.62745094
774.61181641	2.62745094
774.61602783	2.62745094
774.62011719	2.60784316
774.62426758	2.60784316
774.62829590	2.60784316
774.63232422	2.58823538
774.63232422	2.58823538
774.63647461	2.58823538
774.64080811	2.56862736
774.64483643	2.56862736
774.64868164	2.54901958
774.65283203	2.54901958
774.65692139	2.52941179
774.66107178	2.52941179
774.66107178	2.52941179
774.66516113	2.50980401
774.66931152	2.50980401
774.67327881	2.50980401
774.67327881	2.49019599
774.67749023	2.49019599
774.68157959	2.47058821
774.68548584	2.47058821
774.68969727	2.47058821
774.68969727	2.45098042
774.69378662	2.45098042
774.69818115	2.45098042
774.70233154	2.43137264
774.70233154	2.43137264
774.70629883	2.41176462
774.71020508	2.41176462
774.71453857	2.41176462
774.71838379	2.39215684
774.71838379	2.39215684
774.72241211	2.39215684
774.72656250	2.37254906
774.73077393	2.37254906
774.73077393	2.37254906
774.73480225	2.35294127
774.73883057	2.35294127
774.74291992	2.33333325
774.74731445	2.33333325
774.74731445	2.33333325
774.75122070	2.31372547
774.75537109	2.31372547
774.75927734	2.31372547
774.75927734	2.29411769
774.76354980	2.29411769
774.76757813	2.27450991
774.77166748	2.27450991
774.77575684	2.27450991
774.77575684	2.25490189
774.77978516	2.25490189
774.78393555	2.23529410
774.78808594	2.23529410
774.78808594	2.21568632
774.79205322	2.21568632
774.79632568	2.19607854
774.80035400	2.19607854
774.80444336	2.19607854
774.80444336	2.17647052
774.80841064	2.17647052
774.81256104	2.15686274
774.81677246	2.15686274
774.81677246	2.15686274
774.82086182	2.13725495
774.82507324	2.13725495
774.82916260	2.13725495
774.83325195	2.11764717
774.83325195	2.11764717
774.83740234	2.11764717
774.84130859	2.11764717
774.84533691	2.11764717
774.84533691	2.11764717
774.84942627	2.11764717
774.85357666	2.11764717
774.85766602	2.11764717
774.86175537	2.11764717
774.86175537	2.11764717
774.86584473	2.11764717
774.87030029	2.11764717
774.87408447	2.11764717
774.87408447	2.13725495
774.87805176	2.13725495
774.88232422	2.13725495
774.88629150	2.15686274
774.89044189	2.17647052
774.89477539	2.17647052
774.89874268	2.19607854
774.90277100	2.19607854
774.90277100	2.21568632
774.90686035	2.21568632
774.91094971	2.23529410
774.91516113	2.23529410
774.91900635	2.27450991
774.92309570	2.27450991
774.92730713	2.29411769
774.93145752	2.29411769
774.93145752	2.31372547
774.93542480	2.31372547
774.93957520	2.33333325
774.94372559	2.33333325
774.94812012	2.35294127
774.95202637	2.37254906
774.95617676	2.37254906
774.96032715	2.39215684
774.96032715	2.39215684
774.96441650	2.39215684
774.96832275	2.41176462
774.97229004	2.41176462
774.97644043	2.43137264
774.98071289	2.43137264
774.98474121	2.43137264
774.98864746	2.43137264
774.98864746	2.43137264
774.99279785	2.45098042
774.99725342	2.45098042
775.00103760	2.45098042
775.00506592	2.45098042
775.00927734	2.45098042
775.01336670	2.45098042
775.01751709	2.45098042
775.01751709	2.45098042
775.02160645	2.45098042
775.02581787	2.45098042
775.02978516	2.45098042
775.02978516	2.45098042
775.03387451	2.45098042
775.03790283	2.45098042
775.04199219	2.43137264
775.04608154	2.43137264
775.04608154	2.43137264
775.05023193	2.43137264
775.05426025	2.43137264
775.05841064	2.43137264
775.05841064	2.43137264
775.06237793	2.43137264
775.06652832	2.41176462
775.07073975	2.41176462
775.07476807	2.41176462
775.07476807	2.41176462
775.07879639	2.41176462
775.08312988	2.41176462
775.08728027	2.41176462
775.08728027	2.39215684
775.09118652	2.39215684
775.09533691	2.39215684
775.09936523	2.39215684
775.10339355	2.37254906
775.10339355	2.37254906
775.10754395	2.37254906
775.11151123	2.35294127
775.11572266	2.35294127
775.11572266	2.35294127
775.11987305	2.33333325
775.12390137	2.33333325
775.12805176	2.33333325
775.13220215	2.33333325
775.13220215	2.31372547
775.13616943	2.31372547
775.14031982	2.31372547
775.14471436	2.31372547
775.14471436	2.29411769
775.14855957	2.29411769
775.15252686	2.29411769
775.15673828	2.29411769
775.16076660	2.29411769
775.16076660	2.29411769
775.16516113	2.29411769
775.16900635	2.29411769
775.17303467	2.29411769
775.17303467	2.27450991
775.17730713	2.27450991
775.18133545	2.27450991
775.18542480	2.27450991
775.18939209	2.27450991
775.18939209	2.27450991
775.19354248	2.27450991
775.19805908	2.27450991
775.20178223	2.27450991
775.20178223	2.27450991
775.20581055	2.27450991
775.21014404	2.27450991
775.21423340	2.27450991
775.21820068	2.25490189
775.21820068	2.25490189
775.22229004	2.25490189
775.22625732	2.25490189
775.23059082	2.25490189
775.23059082	2.25490189
775.23461914	2.25490189
775.23852539	2.25490189
775.24267578	2.25490189
775.24688721	2.25490189
775.24688721	2.25490189
775.25091553	2.25490189
775.25488281	2.25490189
775.25903320	2.25490189
775.25903320	2.25490189
775.26318359	2.25490189
775.26727295	2.23529410
775.27166748	2.23529410
775.27575684	2.23529410
775.27960205	2.23529410
775.28369141	2.23529410
775.28778076	2.23529410
775.28778076	2.23529410
775.29180908	2.23529410
775.29589844	2.23529410
775.30004883	2.23529410
775.30413818	2.25490189
775.30828857	2.25490189
775.31225586	2.25490189
775.31658936	2.25490189
775.31658936	2.27450991
775.32061768	2.27450991
775.32470703	2.29411769
775.32885742	2.29411769
775.33300781	2.31372547
775.33715820	2.31372547
775.34130859	2.33333325
775.34521484	2.33333325
775.34521484	2.35294127
775.34954834	2.35294127
775.35333252	2.37254906
775.35736084	2.37254906
775.36151123	2.39215684
775.36560059	2.41176462
775.36962891	2.43137264
775.37377930	2.43137264
775.37377930	2.45098042
775.37799072	2.45098042
775.38201904	2.47058821
775.38610840	2.47058821
775.39013672	2.50980401
775.39428711	2.50980401
775.39831543	2.52941179
775.40264893	2.52941179
775.40264893	2.54901958
775.40679932	2.54901958
775.41070557	2.56862736
775.41485596	2.56862736
775.41485596	2.58823538
775.41876221	2.58823538
775.42297363	2.60784316
775.42718506	2.60784316
775.43121338	2.62745094
775.43121338	2.62745094
775.43530273	2.64705873
775.43927002	2.64705873
775.44342041	2.64705873
775.44342041	2.64705873
775.44781494	2.66666675
775.45153809	2.66666675
775.45568848	2.66666675
775.45989990	2.66666675
775.45989990	2.66666675
775.46405029	2.68627453
775.46813965	2.68627453
775.47216797	2.68627453
775.47216797	2.68627453
775.47619629	2.68627453
775.48034668	2.68627453
775.48443604	2.66666675
775.48852539	2.66666675
775.48852539	2.66666675
775.49255371	2.66666675
775.49670410	2.66666675
775.50091553	2.66666675
775.50091553	2.66666675
775.50476074	2.66666675
775.50891113	2.64705873
775.51312256	2.64705873
775.51721191	2.64705873
775.51721191	2.64705873
775.52130127	2.64705873
775.52532959	2.62745094
775.52966309	2.62745094
775.52966309	2.62745094
775.53356934	2.62745094
775.53778076	2.62745094
775.54168701	2.60784316
775.54577637	2.60784316
775.54577637	2.60784316
775.54998779	2.58823538
775.55407715	2.58823538
775.55816650	2.58823538
775.55816650	2.58823538
775.56231689	2.56862736
775.56634521	2.56862736
775.57043457	2.56862736
775.57452393	2.54901958
775.57452393	2.54901958
775.57861328	2.52941179
775.58276367	2.52941179
775.58679199	2.52941179
775.58679199	2.50980401
775.59100342	2.50980401
775.59515381	2.50980401
775.59906006	2.49019599
775.60333252	2.49019599
775.60333252	2.47058821
775.60729980	2.47058821
775.61151123	2.47058821
775.61566162	2.45098042
775.61566162	2.45098042
775.61962891	2.45098042
775.62377930	2.43137264
775.62786865	2.43137264
775.63183594	2.41176462
775.63604736	2.41176462
775.64013672	2.41176462
775.64422607	2.41176462
775.64422607	2.39215684
775.64843750	2.39215684
775.65252686	2.39215684
775.65661621	2.37254906
775.66064453	2.37254906
775.66467285	2.35294127
775.66870117	2.35294127
775.67297363	2.35294127
775.67297363	2.33333325
775.67694092	2.33333325
775.68121338	2.33333325
775.68518066	2.31372547
775.68933105	2.31372547
775.69329834	2.29411769
775.69744873	2.29411769
775.70159912	2.27450991
775.70159912	2.27450991
775.70556641	2.27450991
775.70965576	2.25490189
775.71405029	2.25490189
775.71813965	2.23529410
775.72198486	2.23529410
775.72607422	2.23529410
775.73028564	2.21568632
775.73028564	2.21568632
775.73431396	2.21568632
775.73846436	2.19607854
775.74249268	2.19607854
775.74676514	2.19607854
775.75073242	2.19607854
775.75469971	2.17647052
775.75885010	2.17647052
775.75885010	2.17647052
775.76293945	2.17647052
775.76708984	2.17647052
775.77117920	2.17647052
775.77526855	2.17647052
775.77954102	2.17647052
775.78338623	2.17647052
775.78759766	2.19607854
775.78759766	2.19607854
775.79150391	2.19607854
775.79565430	2.19607854
775.79980469	2.21568632
775.79980469	2.21568632
775.80389404	2.21568632
775.80804443	2.23529410
775.81201172	2.23529410
775.81634521	2.25490189
775.81634521	2.25490189
775.82025146	2.25490189
775.82440186	2.27450991
775.82849121	2.27450991
775.82849121	2.29411769
775.83258057	2.29411769
775.83685303	2.31372547
775.84106445	2.31372547
775.84515381	2.33333325
775.84515381	2.33333325
775.84912109	2.35294127
775.85308838	2.35294127
775.85717773	2.37254906
775.85717773	2.37254906
775.86126709	2.37254906
775.86529541	2.39215684
775.86944580	2.39215684
775.87359619	2.41176462
775.87359619	2.41176462
775.87762451	2.41176462
775.88177490	2.43137264
775.88580322	2.43137264
775.88580322	2.43137264
775.88989258	2.45098042
775.89410400	2.45098042
775.89813232	2.45098042
775.90240479	2.45098042
775.90240479	2.47058821
775.90631104	2.47058821
775.91052246	2.47058821
775.91473389	2.47058821
775.91473389	2.49019599
775.91876221	2.49019599
775.92266846	2.49019599
775.92675781	2.49019599
775.93096924	2.49019599
775.93096924	2.50980401
775.93493652	2.50980401
775.93902588	2.50980401
775.94329834	2.50980401
775.94329834	2.50980401
775.94750977	2.50980401
775.95129395	2.50980401
775.95544434	2.50980401
775.95959473	2.50980401
775.95959473	2.50980401
775.96386719	2.50980401
775.96777344	2.50980401
775.97204590	2.50980401
775.97204590	2.50980401
775.97619629	2.50980401
775.98016357	2.50980401
775.98419189	2.50980401
775.98828125	2.50980401
775.98828125	2.50980401
775.99237061	2.50980401
775.99645996	2.50980401
776.00054932	2.49019599
776.00054932	2.49019599
776.00469971	2.49019599
776.00866699	2.49019599
776.01275635	2.49019599
776.01696777	2.47058821
776.02117920	2.47058821
776.02514648	2.47058821
776.02947998	2.47058821
776.02947998	2.45098042
776.03338623	2.45098042
776.03747559	2.45098042
776.04138184	2.45098042
776.04559326	2.43137264
776.04986572	2.43137264
776.05377197	2.41176462
776.05792236	2.41176462
776.05792236	2.41176462
776.06195068	2.41176462
776.06610107	2.39215684
776.07019043	2.39215684
776.07434082	2.39215684
776.07830811	2.37254906
776.08245850	2.37254906
776.08679199	2.37254906
776.08679199	2.37254906
776.09063721	2.35294127
776.09466553	2.35294127
776.09899902	2.35294127
776.10290527	2.33333325
776.10705566	2.33333325
776.11120605	2.33333325
776.11547852	2.33333325
776.11547852	2.31372547
776.11938477	2.31372547
776.12347412	2.31372547
776.12750244	2.31372547
776.13159180	2.29411769
776.13574219	2.29411769
776.13977051	2.29411769
776.14385986	2.29411769
776.14385986	2.27450991
776.14813232	2.27450991
776.15209961	2.27450991
776.15637207	2.25490189
776.16046143	2.25490189
776.16473389	2.25490189
776.16845703	2.23529410
776.17254639	2.23529410
776.17254639	2.23529410
776.17663574	2.23529410
776.18084717	2.21568632
776.18493652	2.21568632
776.18493652	2.21568632
776.18890381	2.21568632
776.19311523	2.19607854
776.19732666	2.19607854
776.20129395	2.19607854
776.20129395	2.19607854
776.20532227	2.17647052
776.20947266	2.17647052
776.21368408	2.17647052
776.21368408	2.17647052
776.21771240	2.17647052
776.22192383	2.17647052
776.22607422	2.17647052
776.23004150	2.17647052
776.23004150	2.17647052
776.23406982	2.17647052
776.23803711	2.17647052
776.24230957	2.17647052
776.24230957	2.17647052
776.24633789	2.17647052
776.25042725	2.17647052
776.25451660	2.17647052
776.25860596	2.19607854
776.25860596	2.19607854
776.26263428	2.19607854
776.26678467	2.21568632
776.27093506	2.21568632
776.27093506	2.21568632
776.27496338	2.23529410
776.27911377	2.23529410
776.28338623	2.23529410
776.28753662	2.25490189
776.28753662	2.25490189
776.29132080	2.27450991
776.29547119	2.27450991
776.29968262	2.29411769
776.29968262	2.29411769
776.30364990	2.31372547
776.30780029	2.31372547
776.31182861	2.33333325
776.31591797	2.33333325
776.31591797	2.33333325
776.32012939	2.35294127
776.32421875	2.35294127
776.32830811	2.37254906
776.32830811	2.37254906
776.33233643	2.39215684
776.33654785	2.39215684
776.34057617	2.39215684
776.34484863	2.41176462
776.34484863	2.41176462
776.34881592	2.41176462
776.35296631	2.43137264
776.35711670	2.43137264
776.35711670	2.43137264
776.36108398	2.45098042
776.36517334	2.45098042
776.36926270	2.45098042
776.37329102	2.45098042
776.37329102	2.47058821
776.37750244	2.47058821
776.38140869	2.47058821
776.38549805	2.47058821
776.38549805	2.47058821
776.38964844	2.47058821
776.39373779	2.47058821
776.39825439	2.47058821
776.40191650	2.47058821
776.40600586	2.47058821
776.41021729	2.47058821
776.41461182	2.47058821
776.41461182	2.47058821
776.41851807	2.47058821
776.42242432	2.47058821
776.42663574	2.47058821
776.43072510	2.47058821
776.43469238	2.45098042
776.43884277	2.45098042
776.44287109	2.45098042
776.44287109	2.45098042
776.44720459	2.45098042
776.45123291	2.43137264
776.45526123	2.43137264
776.45935059	2.43137264
776.46356201	2.41176462
776.46759033	2.41176462
776.47155762	2.41176462
776.47155762	2.41176462
776.47570801	2.39215684
776.48010254	2.39215684
776.48413086	2.39215684
776.48797607	2.37254906
776.49200439	2.35294127
776.49621582	2.35294127
776.50030518	2.35294127
776.50030518	2.33333325
776.50439453	2.33333325
776.50842285	2.33333325
776.51257324	2.31372547
776.51672363	2.29411769
776.52081299	2.29411769
776.52478027	2.29411769
776.52886963	2.27450991
776.52886963	2.27450991
776.53308105	2.27450991
776.53729248	2.25490189
776.54156494	2.25490189
776.54156494	2.25490189
776.54547119	2.23529410
776.54943848	2.23529410
776.55358887	2.23529410
776.55767822	2.23529410
776.55767822	2.21568632
776.56164551	2.21568632
776.56591797	2.21568632
776.56988525	2.21568632
776.56988525	2.19607854
776.57409668	2.19607854
776.57806396	2.19607854
776.58227539	2.19607854
776.58630371	2.19607854
776.58630371	2.17647052
776.59039307	2.17647052
776.59442139	2.17647052
776.59863281	2.17647052
776.59863281	2.17647052
776.60290527	2.15686274
776.60705566	2.15686274
776.61096191	2.15686274
776.61511230	2.15686274
776.61511230	2.15686274
776.61901855	2.13725495
776.62316895	2.13725495
776.62725830	2.13725495
776.62725830	2.13725495
776.63128662	2.11764717
776.63543701	2.11764717
776.63958740	2.11764717
776.64385986	2.11764717
776.64385986	2.11764717
776.64813232	2.09803915
776.65179443	2.09803915
776.65588379	2.09803915
776.65588379	2.09803915
776.66009521	2.09803915
776.66455078	2.09803915
776.66851807	2.09803915
776.67230225	2.07843137
776.67230225	2.07843137
776.67645264	2.07843137
776.68060303	2.07843137
776.68469238	2.07843137
776.68469238	2.07843137
776.68872070	2.07843137
776.69274902	2.07843137
776.69714355	2.07843137
776.70104980	2.07843137
776.70104980	2.09803915
776.70501709	2.09803915
776.70916748	2.09803915
776.71331787	2.09803915
776.71331787	2.11764717
776.71759033	2.11764717
776.72143555	2.11764717
776.72576904	2.13725495
776.72991943	2.13725495
776.72991943	2.15686274
776.73382568	2.15686274
776.73779297	2.17647052
776.74194336	2.17647052
776.74194336	2.19607854
776.74603271	2.21568632
776.75018311	2.21568632
776.75427246	2.23529410
776.75830078	2.25490189
776.75830078	2.25490189
776.76239014	2.27450991
776.76660156	2.27450991
776.77069092	2.29411769
776.77069092	2.31372547
776.77471924	2.31372547
776.77874756	2.33333325
776.78295898	2.35294127
776.78729248	2.37254906
776.79132080	2.37254906
776.79559326	2.39215684
776.79943848	2.39215684
776.79943848	2.41176462
776.80340576	2.41176462
776.80737305	2.43137264
776.81152344	2.43137264
776.81579590	2.45098042
776.81982422	2.47058821
776.82391357	2.47058821
776.82806396	2.49019599
776.82806396	2.49019599
776.83203125	2.49019599
776.83612061	2.50980401
776.84027100	2.50980401
776.84448242	2.52941179
776.84844971	2.52941179
776.85272217	2.52941179
776.85693359	2.52941179
776.85693359	2.52941179
776.86108398	2.52941179
776.86529541	2.52941179
776.86895752	2.52941179
776.87304688	2.52941179
776.87713623	2.52941179
776.88134766	2.52941179
776.88531494	2.52941179
776.88531494	2.52941179
776.88952637	2.52941179
776.89361572	2.52941179
776.89807129	2.50980401
776.90173340	2.50980401
776.90576172	2.50980401
776.90991211	2.50980401
776.91436768	2.49019599
776.91436768	2.49019599
776.91827393	2.49019599
776.92254639	2.49019599
776.92657471	2.47058821
776.92657471	2.47058821
776.93048096	2.47058821
776.93450928	2.45098042
776.93853760	2.45098042
776.94268799	2.45098042
776.94268799	2.43137264
776.94689941	2.43137264
776.95092773	2.43137264
776.95489502	2.41176462
776.95489502	2.41176462
776.95904541	2.41176462
776.96313477	2.39215684
776.96734619	2.39215684
776.97131348	2.37254906
776.97131348	2.37254906
776.97540283	2.37254906
776.97961426	2.35294127
776.98382568	2.35294127
776.98382568	2.33333325
776.98791504	2.33333325
776.99182129	2.33333325
776.99597168	2.31372547
777.00006104	2.31372547
777.00006104	2.31372547
777.00415039	2.29411769
777.00830078	2.29411769
777.01226807	2.29411769
777.01226807	2.27450991
777.01647949	2.27450991
777.02056885	2.27450991
777.02459717	2.25490189
777.02868652	2.25490189
777.02868652	2.25490189
777.03277588	2.23529410
777.03698730	2.23529410
777.04113770	2.23529410
777.04113770	2.21568632
777.04504395	2.21568632
777.04937744	2.21568632
777.05334473	2.19607854
777.05749512	2.19607854
777.05749512	2.19607854
777.06140137	2.19607854
777.06567383	2.17647052
777.06976318	2.17647052
777.06976318	2.17647052
777.07379150	2.17647052
777.07775879	2.17647052
777.08190918	2.17647052
777.08605957	2.15686274
777.08605957	2.15686274
777.09014893	2.15686274
777.09436035	2.15686274
777.09826660	2.15686274
777.09826660	2.15686274
777.10241699	2.15686274
777.10662842	2.15686274
777.11090088	2.13725495
777.11492920	2.13725495
777.11492920	2.13725495
777.11895752	2.13725495
777.12292480	2.13725495
777.12707520	2.13725495
777.12707520	2.13725495
777.13110352	2.11764717
777.13543701	2.11764717
777.13928223	2.11764717
777.14349365	2.11764717
777.14349365	2.11764717
777.14746094	2.11764717
777.15155029	2.09803915
777.15563965	2.09803915
777.15563965	2.09803915
777.15979004	2.09803915
777.16400146	2.09803915
777.16790771	2.09803915
777.17224121	2.09803915
777.17639160	2.09803915
777.18041992	2.11764717
777.18450928	2.11764717
777.18450928	2.11764717
777.18841553	2.11764717
777.19250488	2.13725495
777.19677734	2.13725495
777.20080566	2.15686274
777.20477295	2.15686274
777.20892334	2.17647052
777.21301270	2.17647052
777.21301270	2.19607854
777.21722412	2.19607854
777.22125244	2.21568632
777.22528076	2.21568632
777.22943115	2.23529410
777.23382568	2.25490189
777.23779297	2.25490189
777.24169922	2.27450991
777.24169922	2.27450991
777.24584961	2.29411769
777.25000000	2.29411769
777.25408936	2.31372547
777.25805664	2.33333325
777.26232910	2.33333325
777.26629639	2.35294127
777.27050781	2.35294127
777.27050781	2.35294127
777.27459717	2.37254906
777.27856445	2.37254906
777.28265381	2.39215684
777.28698730	2.39215684
777.29089355	2.41176462
777.29504395	2.41176462
777.29907227	2.41176462
777.29907227	2.41176462
777.30334473	2.43137264
777.30737305	2.43137264
777.31134033	2.43137264
777.31549072	2.45098042
777.31958008	2.45098042
777.32366943	2.45098042
777.32781982	2.45098042
777.32781982	2.45098042
777.33184814	2.45098042
777.33636475	2.45098042
777.34008789	2.45098042
777.34008789	2.45098042
777.34411621	2.45098042
777.34838867	2.45098042
777.35235596	2.45098042
777.35656738	2.45098042
777.35656738	2.45098042
777.36077881	2.45098042
777.36474609	2.45098042
777.36871338	2.45098042
777.36871338	2.45098042
777.37280273	2.45098042
777.37695313	2.45098042
777.38098145	2.45098042
777.38519287	2.45098042
777.38519287	2.43137264
777.38916016	2.43137264
777.39324951	2.43137264
777.39752197	2.43137264
777.39752197	2.43137264
777.40155029	2.43137264
777.40551758	2.41176462
777.40966797	2.41176462
777.41406250	2.41176462
777.41406250	2.41176462
777.41796875	2.39215684
777.42187500	2.39215684
777.42602539	2.39215684
777.42602539	2.37254906
777.43060303	2.37254906
777.43432617	2.37254906
777.43829346	2.35294127
777.44238281	2.35294127
777.44238281	2.35294127
777.44653320	2.33333325
777.45074463	2.33333325
777.45477295	2.33333325
777.45477295	2.31372547
777.45874023	2.31372547
777.46289063	2.31372547
777.46716309	2.29411769
777.47113037	2.29411769
777.47113037	2.27450991
777.47534180	2.27450991
777.47930908	2.27450991
777.48345947	2.27450991
777.48345947	2.25490189
777.48742676	2.25490189
777.49182129	2.25490189
777.49609375	2.23529410
777.49981689	2.23529410
777.49981689	2.23529410
777.50396729	2.23529410
777.50793457	2.21568632
777.51202393	2.21568632
777.51202393	2.21568632
777.51635742	2.19607854
777.52026367	2.19607854
777.52429199	2.19607854
777.52844238	2.19607854
777.52844238	2.19607854
777.53253174	2.17647052
777.53668213	2.17647052
777.54083252	2.17647052
777.54083252	2.17647052
777.54479980	2.17647052
777.54901123	2.17647052
777.55328369	2.17647052
777.55743408	2.17647052
777.55743408	2.17647052
777.56140137	2.17647052
777.56549072	2.17647052
777.56945801	2.17647052
777.56945801	2.17647052
777.57373047	2.17647052
777.57757568	2.17647052
777.58172607	2.17647052
777.58581543	2.17647052
777.58996582	2.17647052
777.59405518	2.17647052
777.59826660	2.17647052
777.59826660	2.17647052
777.60235596	2.17647052
777.60626221	2.17647052
777.61041260	2.17647052
777.61468506	2.17647052
777.61877441	2.17647052
777.62268066	2.17647052
777.62689209	2.17647052
777.62689209	2.17647052
777.63085938	2.17647052
777.63494873	2.17647052
777.63909912	2.17647052
777.64312744	2.19607854
777.64733887	2.19607854
777.65124512	2.19607854
777.65545654	2.21568632
777.65545654	2.21568632
777.65960693	2.21568632
777.66406250	2.23529410
777.66772461	2.23529410
777.67175293	2.25490189
777.67596436	2.27450991
777.68035889	2.29411769
777.68426514	2.29411769
777.68426514	2.31372547
777.68835449	2.31372547
777.69232178	2.33333325
777.69641113	2.35294127
777.70056152	2.37254906
777.70458984	2.39215684
777.70861816	2.41176462
777.71282959	2.41176462
777.71282959	2.43137264
777.71697998	2.45098042
777.72094727	2.45098042
777.72509766	2.47058821
777.72509766	2.49019599
777.72924805	2.49019599
777.73339844	2.50980401
777.73748779	2.50980401
777.74151611	2.52941179
777.74151611	2.54901958
777.74578857	2.54901958
777.74969482	2.56862736
777.75384521	2.56862736
777.75384521	2.58823538
777.75787354	2.58823538
777.76196289	2.60784316
777.76617432	2.60784316
777.77020264	2.60784316
777.77020264	2.62745094
777.77435303	2.62745094
777.77832031	2.62745094
777.78240967	2.64705873
777.78240967	2.64705873
777.78656006	2.64705873
777.79052734	2.64705873
777.79461670	2.64705873
777.79907227	2.64705873
777.79907227	2.66666675
777.80316162	2.66666675
777.80731201	2.66666675
777.81121826	2.66666675
777.81121826	2.66666675
777.81542969	2.66666675
777.81927490	2.66666675
777.82342529	2.64705873
777.82757568	2.64705873
777.82757568	2.64705873
777.83154297	2.64705873
777.83563232	2.64705873
777.83996582	2.64705873
777.83996582	2.64705873
777.84381104	2.62745094
777.84820557	2.62745094
777.85211182	2.62745094
777.85620117	2.62745094
777.85620117	2.62745094
777.86035156	2.60784316
777.86468506	2.60784316
777.86865234	2.60784316
777.86865234	2.60784316
777.87280273	2.58823538
777.87695313	2.58823538
777.88085938	2.58823538
777.88488770	2.56862736
777.88488770	2.56862736
777.88891602	2.56862736
777.89312744	2.54901958
777.89739990	2.54901958
777.89739990	2.54901958
777.90124512	2.52941179
777.90533447	2.52941179
777.90942383	2.52941179
777.91363525	2.50980401
777.91363525	2.50980401
777.91754150	2.49019599
777.92169189	2.49019599
777.92578125	2.49019599
777.92578125	2.47058821
777.92993164	2.47058821
777.93432617	2.47058821
777.93829346	2.45098042
777.94238281	2.43137264
777.94635010	2.43137264
777.95043945	2.43137264
777.95440674	2.41176462
777.95440674	2.41176462
777.95855713	2.41176462
777.96258545	2.39215684
777.96679688	2.39215684
777.97100830	2.37254906
777.97491455	2.37254906
777.97906494	2.35294127
777.98327637	2.35294127
777.98327637	2.35294127
777.98730469	2.33333325
777.99139404	2.33333325
777.99566650	2.33333325
777.99981689	2.31372547
778.00366211	2.31372547
778.00775146	2.29411769
778.01177979	2.29411769
778.01177979	2.29411769
778.01605225	2.27450991
778.02001953	2.27450991
778.02416992	2.27450991
778.02825928	2.25490189
778.03240967	2.25490189
778.03643799	2.25490189
778.04052734	2.23529410
778.04052734	2.23529410
778.04455566	2.23529410
778.04870605	2.21568632
778.05279541	2.21568632
778.05688477	2.21568632
778.06115723	2.19607854
778.06506348	2.19607854
778.06921387	2.19607854
778.06921387	2.19607854
778.07324219	2.17647052
778.07727051	2.17647052
778.08172607	2.17647052
778.08172607	2.17647052
778.08551025	2.17647052
778.08959961	2.17647052
778.09381104	2.17647052
778.09802246	2.17647052
778.09802246	2.17647052
778.10186768	2.17647052
778.10601807	2.17647052
778.11022949	2.17647052
778.11022949	2.17647052
778.11450195	2.17647052
778.11846924	2.17647052
778.12268066	2.19607854
778.12683105	2.19607854
778.12683105	2.19607854
778.13079834	2.21568632
778.13470459	2.21568632
778.13873291	2.21568632
778.13873291	2.23529410
778.14294434	2.23529410
778.14733887	2.25490189
778.15112305	2.25490189
778.15527344	2.27450991
778.15527344	2.27450991
778.15930176	2.29411769
778.16345215	2.29411769
778.16754150	2.31372547
778.16754150	2.31372547
778.17156982	2.33333325
778.17565918	2.33333325
778.17980957	2.35294127
778.18414307	2.35294127
778.18414307	2.37254906
778.18817139	2.37254906
778.19213867	2.39215684
778.19622803	2.39215684
778.19622803	2.41176462
778.20031738	2.41176462
778.20434570	2.43137264
778.20843506	2.43137264
778.21252441	2.45098042
778.21252441	2.45098042
778.21667480	2.45098042
778.22070313	2.47058821
778.22473145	2.47058821
778.22473145	2.47058821
778.22888184	2.49019599
778.23303223	2.49019599
778.23712158	2.49019599
778.24133301	2.50980401
778.24133301	2.50980401
778.24542236	2.50980401
778.24963379	2.52941179
778.25354004	2.52941179
778.25354004	2.52941179
778.25756836	2.52941179
778.26165771	2.52941179
778.26599121	2.54901958
778.26995850	2.54901958
778.26995850	2.54901958
778.27392578	2.54901958
778.27801514	2.54901958
778.28234863	2.54901958
778.28234863	2.56862736
778.28637695	2.56862736
778.29040527	2.56862736
778.29449463	2.56862736
778.29858398	2.56862736
778.29858398	2.56862736
778.30267334	2.56862736
778.30682373	2.56862736
778.31115723	2.56862736
778.31115723	2.56862736
778.31512451	2.54901958
778.31909180	2.54901958
778.32324219	2.54901958
778.32727051	2.54901958
778.33135986	2.54901958
778.33544922	2.52941179
778.33953857	2.52941179
778.33953857	2.52941179
778.34368896	2.52941179
778.34790039	2.50980401
778.35180664	2.50980401
778.35595703	2.50980401
778.36010742	2.49019599
778.36413574	2.49019599
778.36840820	2.49019599
778.36840820	2.47058821
778.37249756	2.47058821
778.37670898	2.47058821
778.38073730	2.47058821
778.38458252	2.45098042
778.38873291	2.45098042
778.39276123	2.43137264
778.39703369	2.43137264
778.39703369	2.43137264
778.40100098	2.41176462
778.40509033	2.41176462
778.40930176	2.41176462
778.41339111	2.39215684
778.41729736	2.39215684
778.42144775	2.39215684
778.42559814	2.39215684
778.42559814	2.37254906
778.42962646	2.37254906
778.43365479	2.37254906
778.43774414	2.37254906
778.44213867	2.35294127
778.44628906	2.35294127
778.45025635	2.35294127
778.45428467	2.35294127
778.45428467	2.35294127
778.45825195	2.35294127
778.46240234	2.35294127
778.46661377	2.35294127
778.46661377	2.35294127
778.47052002	2.33333325
778.47467041	2.33333325
778.47882080	2.33333325
778.48291016	2.33333325
778.48291016	2.33333325
778.48706055	2.33333325
778.49108887	2.31372547
778.49530029	2.31372547
778.49530029	2.31372547
778.49932861	2.31372547
778.50366211	2.31372547
778.50762939	2.29411769
778.51165771	2.29411769
778.51165771	2.29411769
778.51574707	2.29411769
778.51977539	2.29411769
778.52392578	2.27450991
778.52392578	2.27450991
778.52795410	2.27450991
778.53204346	2.27450991
778.53613281	2.27450991
778.54034424	2.25490189
778.54034424	2.25490189
778.54425049	2.25490189
778.54846191	2.25490189
778.55255127	2.25490189
778.55255127	2.25490189
778.55670166	2.25490189
778.56066895	2.25490189
778.56494141	2.25490189
778.56915283	2.25490189
778.56915283	2.25490189
778.57305908	2.25490189
778.57708740	2.25490189
778.58148193	2.25490189
778.58148193	2.25490189
778.58526611	2.25490189
778.58947754	2.25490189
778.59356689	2.27450991
778.59753418	2.27450991
778.59753418	2.27450991
778.60174561	2.27450991
778.60577393	2.29411769
778.60992432	2.29411769
778.60992432	2.31372547
778.61413574	2.31372547
778.61822510	2.33333325
778.62213135	2.33333325
778.62646484	2.35294127
778.62646484	2.35294127
778.63061523	2.37254906
778.63446045	2.37254906
778.63854980	2.39215684
778.63854980	2.39215684
778.64270020	2.41176462
778.64678955	2.43137264
778.65087891	2.43137264
778.65496826	2.45098042
778.65496826	2.47058821
778.65899658	2.47058821
778.66314697	2.49019599
778.66735840	2.49019599
778.66735840	2.50980401
778.67132568	2.50980401
778.67553711	2.52941179
778.67962646	2.52941179
778.68377686	2.54901958
778.68377686	2.54901958
778.68768311	2.56862736
778.69183350	2.56862736
778.69628906	2.56862736
778.69628906	2.58823538
778.70013428	2.58823538
778.70410156	2.58823538
778.70825195	2.60784316
778.71234131	2.60784316
778.71655273	2.60784316
778.72039795	2.60784316
778.72454834	2.60784316
778.72454834	2.60784316
778.72869873	2.60784316
778.73278809	2.60784316
778.73693848	2.60784316
778.74096680	2.60784316
778.74499512	2.60784316
778.74926758	2.60784316
778.75354004	2.60784316
778.75354004	2.60784316
778.75756836	2.60784316
778.76141357	2.60784316
778.76568604	2.60784316
778.76965332	2.58823538
778.77392578	2.58823538
778.77783203	2.58823538
778.78192139	2.56862736
778.78192139	2.56862736
778.78613281	2.56862736
778.79034424	2.56862736
778.79431152	2.54901958
778.79840088	2.54901958
778.80242920	2.54901958
778.80651855	2.52941179
778.81072998	2.52941179
778.81072998	2.52941179
778.81500244	2.50980401
778.81903076	2.50980401
778.82293701	2.50980401
778.82714844	2.49019599
778.83117676	2.49019599
778.83514404	2.47058821
778.83935547	2.47058821
778.83935547	2.47058821
778.84344482	2.45098042
778.84747314	2.45098042
778.85156250	2.45098042
778.85156250	2.43137264
778.85571289	2.43137264
778.85980225	2.43137264
778.86413574	2.41176462
778.86804199	2.41176462
778.86804199	2.41176462
778.87207031	2.39215684
778.87652588	2.39215684
778.88055420	2.39215684
778.88055420	2.39215684
778.88452148	2.37254906
778.88867188	2.37254906
778.89257813	2.37254906
778.89678955	2.35294127
778.89678955	2.35294127
778.90069580	2.35294127
778.90478516	2.35294127
778.90893555	2.33333325
778.90893555	2.33333325
778.91302490	2.33333325
778.91705322	2.33333325
778.92144775	2.31372547
778.92529297	2.31372547
778.92529297	2.31372547
778.92938232	2.31372547
778.93359375	2.31372547
778.93756104	2.29411769
778.93756104	2.29411769
778.94165039	2.29411769
778.94580078	2.29411769
778.95019531	2.27450991
778.95404053	2.27450991
778.95404053	2.27450991
778.95812988	2.27450991
778.96215820	2.25490189
778.96630859	2.25490189
778.96630859	2.25490189
778.97033691	2.25490189
778.97442627	2.23529410
778.97857666	2.23529410
778.98272705	2.23529410
778.98272705	2.23529410
778.98675537	2.23529410
778.99078369	2.21568632
778.99493408	2.21568632
778.99493408	2.21568632
778.99908447	2.21568632
779.00323486	2.21568632
779.00732422	2.21568632
779.01153564	2.19607854
779.01153564	2.19607854
779.01556396	2.19607854
779.01965332	2.19607854
779.02368164	2.19607854
779.02368164	2.19607854
779.02764893	2.19607854
779.03192139	2.19607854
779.03594971	2.19607854
779.04003906	2.19607854
779.04003906	2.19607854
779.04400635	2.19607854
779.04840088	2.19607854
779.05230713	2.21568632
779.05230713	2.21568632
779.05639648	2.21568632
779.06042480	2.21568632
779.06463623	2.21568632
779.06872559	2.23529410
779.07299805	2.23529410
779.07708740	2.25490189
779.08117676	2.25490189
779.08117676	2.25490189
779.08508301	2.27450991
779.08911133	2.27450991
779.09332275	2.29411769
779.09735107	2.31372547
779.10144043	2.31372547
779.10552979	2.33333325
779.10961914	2.33333325
779.10961914	2.35294127
779.11389160	2.35294127
779.11779785	2.37254906
779.12188721	2.37254906
779.12603760	2.39215684
779.13043213	2.41176462
779.13458252	2.41176462
779.13854980	2.43137264
779.13854980	2.43137264
779.14251709	2.45098042
779.14660645	2.45098042
779.15057373	2.47058821
779.15472412	2.47058821
779.15881348	2.49019599
779.16290283	2.49019599
779.16723633	2.49019599
779.16723633	2.50980401
779.17108154	2.50980401
779.17517090	2.50980401
779.17926025	2.50980401
779.18347168	2.52941179
779.18737793	2.52941179
779.19158936	2.52941179
779.19567871	2.52941179
779.19567871	2.52941179
779.20001221	2.52941179
779.20379639	2.54901958
779.20794678	2.54901958
779.20794678	2.54901958
779.21203613	2.54901958
779.21618652	2.54901958
779.22039795	2.54901958
779.22424316	2.54901958
779.22424316	2.54901958
779.22839355	2.54901958
779.23254395	2.54901958
779.23669434	2.52941179
779.23669434	2.52941179
779.24060059	2.52941179
779.24481201	2.52941179
779.24914551	2.52941179
779.25299072	2.52941179
779.25299072	2.52941179
779.25701904	2.52941179
779.26153564	2.52941179
779.26538086	2.50980401
779.26538086	2.50980401
779.26953125	2.50980401
779.27337646	2.50980401
779.27752686	2.50980401
779.28198242	2.49019599
779.28198242	2.49019599
779.28582764	2.49019599
779.28991699	2.47058821
779.29406738	2.47058821
779.29406738	2.47058821
779.29809570	2.45098042
779.30218506	2.45098042
779.30633545	2.45098042
779.31042480	2.43137264
779.31042480	2.43137264
779.31463623	2.43137264
779.31860352	2.41176462
779.32293701	2.41176462
779.32293701	2.41176462
779.32714844	2.39215684
779.33105469	2.39215684
779.33496094	2.39215684
779.33905029	2.37254906
779.33905029	2.37254906
779.34320068	2.37254906
779.34747314	2.35294127
779.35137939	2.35294127
779.35137939	2.33333325
779.35546875	2.33333325
779.35955811	2.33333325
779.36389160	2.31372547
779.36773682	2.31372547
779.36773682	2.29411769
779.37176514	2.29411769
779.37591553	2.27450991
779.38031006	2.27450991
779.38031006	2.25490189
779.38427734	2.25490189
779.38854980	2.23529410
779.39257813	2.23529410
779.39642334	2.23529410
779.39642334	2.21568632
779.40051270	2.21568632
779.40454102	2.19607854
779.40863037	2.19607854
779.40863037	2.17647052
779.41284180	2.17647052
779.41687012	2.15686274
779.42089844	2.15686274
779.42504883	2.13725495
779.42504883	2.13725495
779.42919922	2.11764717
779.43328857	2.11764717
779.43725586	2.11764717
779.43725586	2.09803915
779.44140625	2.09803915
779.44555664	2.09803915
779.44970703	2.07843137
779.45391846	2.07843137
779.45806885	2.05882359
779.46197510	2.05882359
779.46612549	2.05882359
779.46612549	2.03921580
779.47015381	2.03921580
779.47424316	2.03921580
779.47827148	2.03921580
779.48242188	2.01960778
779.48651123	2.01960778
779.49053955	2.01960778
779.49468994	2.01960778
779.49468994	2.01960778
779.49884033	2.01960778
779.50292969	2.01960778
779.50708008	2.01960778
779.51123047	2.01960778
779.51538086	2.01960778
779.51953125	2.01960778
779.52343750	2.01960778
779.52343750	2.01960778
779.52746582	2.01960778
779.53167725	2.01960778
779.53564453	2.01960778
779.53985596	2.01960778
779.54376221	2.01960778
779.54791260	2.03921580
779.55206299	2.03921580
779.55206299	2.03921580
779.55615234	2.03921580
779.56030273	2.03921580
779.56463623	2.05882359
779.56842041	2.05882359
779.57250977	2.07843137
779.57666016	2.07843137
779.58087158	2.07843137
779.58087158	2.09803915
779.58477783	2.09803915
779.58892822	2.09803915
779.59307861	2.11764717
779.59307861	2.11764717
779.59716797	2.13725495
779.60131836	2.13725495
779.60528564	2.13725495
779.60943604	2.15686274
779.60943604	2.15686274
779.61352539	2.17647052
779.61761475	2.17647052
779.62164307	2.17647052
779.62164307	2.19607854
779.62579346	2.19607854
779.63000488	2.21568632
779.63391113	2.21568632
779.63812256	2.21568632
779.63812256	2.23529410
779.64239502	2.23529410
779.64630127	2.23529410
779.65045166	2.23529410
779.65045166	2.25490189
779.65441895	2.25490189
779.65856934	2.25490189
779.66271973	2.25490189
779.66687012	2.25490189
779.66687012	2.25490189
779.67077637	2.27450991
779.67492676	2.27450991
779.67913818	2.27450991
779.67913818	2.27450991
779.68322754	2.27450991
779.68731689	2.27450991
779.69134521	2.27450991
779.69543457	2.29411769
779.69543457	2.29411769
779.69952393	2.29411769
779.70355225	2.29411769
779.70788574	2.29411769
779.70788574	2.29411769
779.71185303	2.29411769
779.71594238	2.29411769
779.71997070	2.29411769
779.72406006	2.29411769
779.72406006	2.29411769
779.72814941	2.29411769
779.73236084	2.29411769
779.73645020	2.29411769
779.73645020	2.29411769
779.74060059	2.29411769
779.74456787	2.29411769
779.74871826	2.29411769
779.75280762	2.27450991
779.75280762	2.27450991
779.75677490	2.27450991
779.76092529	2.27450991
779.76525879	2.25490189
779.76525879	2.25490189
779.76947021	2.25490189
779.77331543	2.23529410
779.77734375	2.23529410
779.78161621	2.23529410
779.78161621	2.21568632
779.78552246	2.21568632
779.78973389	2.21568632
779.79376221	2.19607854
779.79376221	2.19607854
779.79797363	2.19607854
779.80194092	2.17647052
779.80603027	2.17647052
779.81018066	2.15686274
779.81463623	2.15686274
779.81829834	2.15686274
779.82244873	2.15686274
779.82244873	2.15686274
779.82672119	2.13725495
779.83074951	2.13725495
779.83465576	2.13725495
779.83892822	2.13725495
779.84289551	2.13725495
779.84716797	2.13725495
779.85113525	2.11764717
779.85113525	2.11764717
779.85516357	2.11764717
779.85925293	2.11764717
779.86346436	2.11764717
779.86743164	2.09803915
779.87152100	2.09803915
779.87567139	2.09803915
779.87988281	2.07843137
779.87988281	2.07843137
779.88385010	2.07843137
779.88812256	2.05882359
779.89227295	2.05882359
779.89642334	2.03921580
779.90039063	2.03921580
779.90429688	2.03921580
779.90844727	2.01960778
779.90844727	2.01960778
779.91253662	2.01960778
779.91668701	2.01960778
779.92071533	2.00000000
779.92480469	2.00000000
779.92895508	2.00000000
779.93316650	2.00000000
779.93713379	2.00000000
779.93713379	2.00000000
779.94128418	2.00000000
779.94531250	2.00000000
779.94946289	2.00000000
779.94946289	2.00000000
779.95336914	2.00000000
779.95758057	2.00000000
779.96185303	2.00000000
779.96582031	2.00000000
779.96582031	2.00000000
779.96984863	2.00000000
779.97387695	2.00000000
779.97802734	2.00000000
779.97802734	2.01960778
779.98223877	2.01960778
779.98632813	2.01960778
779.99029541	2.01960778
779.99438477	2.01960778
779.99438477	2.03921580
779.99859619	2.03921580
780.00262451	2.03921580
780.00677490	2.03921580
780.00677490	2.05882359
780.01086426	2.05882359
780.01501465	2.07843137
780.01904297	2.07843137
780.02343750	2.09803915
780.02343750	2.09803915
780.02734375	2.11764717
780.03143311	2.11764717
780.03546143	2.13725495
780.03546143	2.13725495
780.03948975	2.15686274
780.04357910	2.17647052
780.04779053	2.19607854
780.05181885	2.19607854
780.05181885	2.21568632
780.05590820	2.23529410
780.06005859	2.25490189
780.06414795	2.27450991
780.06414795	2.29411769
780.06817627	2.31372547
780.07232666	2.31372547
780.07641602	2.33333325
780.08074951	2.35294127
780.08074951	2.37254906
780.08477783	2.39215684
780.08892822	2.41176462
780.09283447	2.41176462
780.09283447	2.43137264
780.09680176	2.45098042
780.10095215	2.47058821
780.10516357	2.47058821
780.10931396	2.49019599
780.10931396	2.49019599
780.11328125	2.50980401
780.11730957	2.52941179
780.12139893	2.52941179
780.12139893	2.52941179
780.12567139	2.54901958
780.12976074	2.54901958
780.13372803	2.56862736
780.13781738	2.56862736
780.13781738	2.56862736
780.14190674	2.58823538
780.14630127	2.58823538
780.15045166	2.58823538
780.15045166	2.58823538
780.15441895	2.58823538
780.15832520	2.60784316
780.16241455	2.60784316
780.16656494	2.60784316
780.16656494	2.60784316
780.17059326	2.60784316
780.17462158	2.60784316
780.17907715	2.62745094
780.17907715	2.62745094
780.18298340	2.62745094
780.18688965	2.62745094
780.19110107	2.62745094
780.19519043	2.62745094
780.19927979	2.60784316
780.20324707	2.60784316
780.20758057	2.60784316
780.20758057	2.60784316
780.21179199	2.60784316
780.21569824	2.58823538
780.21978760	2.58823538
780.22375488	2.56862736
780.22796631	2.56862736
780.23223877	2.56862736
780.23614502	2.54901958
780.23614502	2.54901958
780.24029541	2.52941179
780.24432373	2.52941179
780.24847412	2.50980401
780.25250244	2.49019599
780.25665283	2.49019599
780.26068115	2.47058821
780.26477051	2.47058821
780.26477051	2.45098042
780.26898193	2.45098042
780.27325439	2.43137264
780.27722168	2.43137264
780.28137207	2.41176462
780.28527832	2.41176462
780.28936768	2.39215684
780.29364014	2.39215684
780.29364014	2.39215684
780.29766846	2.37254906
780.30169678	2.37254906
780.30584717	2.37254906
780.30993652	2.35294127
780.31402588	2.35294127
780.31811523	2.35294127
780.32220459	2.33333325
780.32220459	2.33333325
780.32629395	2.33333325
780.33038330	2.33333325
780.33465576	2.31372547
780.33465576	2.31372547
780.33880615	2.31372547
780.34271240	2.31372547
780.34674072	2.29411769
780.35083008	2.29411769
780.35083008	2.29411769
780.35491943	2.29411769
780.35906982	2.29411769
780.36315918	2.27450991
780.36315918	2.27450991
780.36737061	2.27450991
780.37139893	2.25490189
780.37542725	2.25490189
780.37963867	2.25490189
780.37963867	2.25490189
780.38360596	2.23529410
780.38769531	2.23529410
780.39208984	2.23529410
780.39208984	2.21568632
780.39617920	2.21568632
780.40008545	2.21568632
780.40423584	2.19607854
780.40832520	2.19607854
780.40832520	2.19607854
780.41229248	2.19607854
780.41656494	2.17647052
780.42047119	2.17647052
780.42047119	2.17647052
780.42456055	2.17647052
780.42871094	2.15686274
780.43280029	2.15686274
780.43688965	2.15686274
780.43688965	2.15686274
780.44097900	2.15686274
780.44506836	2.15686274
780.44921875	2.13725495
780.44921875	2.13725495
780.45330811	2.13725495
780.45727539	2.13725495
780.46148682	2.13725495
780.46563721	2.13725495
780.46563721	2.13725495
780.46997070	2.13725495
780.47375488	2.13725495
780.47784424	2.13725495
780.47784424	2.15686274
780.48199463	2.15686274
780.48602295	2.15686274
780.49005127	2.15686274
780.49426270	2.17647052
780.49426270	2.17647052
780.49835205	2.17647052
780.50244141	2.19607854
780.50653076	2.19607854
780.50653076	2.21568632
780.51055908	2.21568632
780.51483154	2.23529410
780.51879883	2.23529410
780.52294922	2.25490189
780.52294922	2.27450991
780.52716064	2.27450991
780.53137207	2.29411769
780.53521729	2.31372547
780.53521729	2.31372547
780.53936768	2.33333325
780.54327393	2.35294127
780.54748535	2.37254906
780.55157471	2.37254906
780.55157471	2.39215684
780.55566406	2.41176462
780.55987549	2.43137264
780.56408691	2.43137264
780.56408691	2.45098042
780.56793213	2.47058821
780.57202148	2.47058821
780.57617188	2.49019599
780.58050537	2.50980401
780.58428955	2.52941179
780.58837891	2.52941179
780.59283447	2.54901958
780.59283447	2.54901958
780.59655762	2.56862736
780.60076904	2.56862736
780.60479736	2.58823538
780.60900879	2.60784316
780.61303711	2.60784316
780.61706543	2.60784316
780.62127686	2.62745094
780.62127686	2.62745094
780.62530518	2.62745094
780.62939453	2.64705873
780.63348389	2.64705873
780.63757324	2.64705873
780.64166260	2.66666675
780.64581299	2.66666675
780.65014648	2.66666675
780.65014648	2.66666675
780.65417480	2.66666675
780.65814209	2.66666675
780.66217041	2.66666675
780.66638184	2.68627453
780.67028809	2.68627453
780.67437744	2.68627453
780.67852783	2.68627453
780.67852783	2.68627453
780.68267822	2.68627453
780.68664551	2.68627453
780.69091797	2.66666675
780.69500732	2.66666675
780.69909668	2.66666675
780.70324707	2.66666675
780.70727539	2.66666675
780.70727539	2.66666675
780.71136475	2.64705873
780.71563721	2.64705873
780.71978760	2.64705873
780.71978760	2.62745094
780.72357178	2.62745094
780.72772217	2.62745094
780.73187256	2.60784316
780.73602295	2.60784316
780.73602295	2.60784316
780.73992920	2.58823538
780.74401855	2.58823538
780.74835205	2.58823538
780.74835205	2.56862736
780.75244141	2.56862736
780.75640869	2.54901958
780.76043701	2.54901958
780.76470947	2.54901958
780.76470947	2.52941179
780.76867676	2.52941179
780.77282715	2.50980401
780.77716064	2.50980401
780.77716064	2.50980401
780.78118896	2.49019599
780.78503418	2.49019599
780.78924561	2.49019599
780.79327393	2.47058821
780.79327393	2.47058821
780.79742432	2.47058821
780.80145264	2.45098042
780.80548096	2.45098042
780.80548096	2.45098042
780.80975342	2.43137264
780.81396484	2.43137264
780.81787109	2.43137264
780.82189941	2.41176462
780.82189941	2.41176462
780.82604980	2.41176462
780.83007813	2.41176462
780.83435059	2.39215684
780.83435059	2.39215684
780.83831787	2.39215684
780.84265137	2.39215684
780.84643555	2.37254906
780.85064697	2.37254906
780.85064697	2.37254906
780.85467529	2.37254906
780.85876465	2.37254906
780.86303711	2.35294127
780.86303711	2.35294127
780.86700439	2.35294127
780.87103271	2.35294127
780.87518311	2.35294127
780.87933350	2.33333325
780.87933350	2.33333325
780.88330078	2.33333325
780.88745117	2.33333325
780.89160156	2.33333325
780.89160156	2.31372547
780.89569092	2.31372547
780.89984131	2.31372547
780.90405273	2.31372547
780.90814209	2.31372547
780.90814209	2.31372547
780.91229248	2.29411769
780.91625977	2.29411769
780.92034912	2.29411769
780.92034912	2.29411769
780.92425537	2.29411769
780.92846680	2.29411769
780.93267822	2.29411769
780.93664551	2.29411769
780.93664551	2.29411769
780.94073486	2.29411769
780.94476318	2.29411769
780.94897461	2.29411769
780.94897461	2.29411769
780.95300293	2.31372547
780.95709229	2.31372547
780.96154785	2.31372547
780.96533203	2.33333325
780.96966553	2.33333325
780.97369385	2.33333325
780.97760010	2.35294127
780.97760010	2.35294127
780.98175049	2.35294127
780.98577881	2.37254906
780.98986816	2.37254906
780.99401855	2.39215684
780.99822998	2.41176462
781.00219727	2.41176462
781.00628662	2.43137264
781.00628662	2.43137264
781.01031494	2.45098042
781.01464844	2.47058821
781.01861572	2.47058821
781.02264404	2.49019599
781.02667236	2.50980401
781.03112793	2.50980401
781.03515625	2.52941179
781.03515625	2.52941179
781.03924561	2.54901958
781.04309082	2.54901958
781.04736328	2.56862736
781.05133057	2.58823538
781.05541992	2.58823538
781.05957031	2.60784316
781.06378174	2.60784316
781.06378174	2.60784316
781.06762695	2.62745094
781.07183838	2.62745094
781.07592773	2.62745094
781.07989502	2.64705873
781.08410645	2.64705873
781.08819580	2.64705873
781.09234619	2.64705873
781.09234619	2.66666675
781.09637451	2.66666675
781.10070801	2.66666675
781.10461426	2.66666675
781.10461426	2.66666675
781.10870361	2.66666675
781.11279297	2.66666675
781.11676025	2.66666675
781.12091064	2.66666675
781.12091064	2.66666675
781.12506104	2.66666675
781.12915039	2.66666675
781.13336182	2.66666675
781.13336182	2.66666675
781.13726807	2.66666675
781.14141846	2.66666675
781.14562988	2.66666675
781.14965820	2.66666675
781.14965820	2.64705873
781.15368652	2.64705873
781.15777588	2.64705873
781.16223145	2.64705873
781.16223145	2.62745094
781.16607666	2.62745094
781.17010498	2.62745094
781.17425537	2.60784316
781.17834473	2.60784316
781.17834473	2.60784316
781.18261719	2.58823538
781.18640137	2.58823538
781.19061279	2.56862736
781.19061279	2.56862736
781.19470215	2.54901958
781.19885254	2.54901958
781.20288086	2.52941179
781.20697021	2.52941179
781.20697021	2.50980401
781.21112061	2.50980401
781.21514893	2.49019599
781.21929932	2.49019599
781.21929932	2.47058821
781.22357178	2.47058821
781.22760010	2.45098042
781.23162842	2.45098042
781.23571777	2.43137264
781.23571777	2.43137264
781.23968506	2.43137264
781.24377441	2.41176462
781.24804688	2.41176462
781.24804688	2.39215684
781.25207520	2.39215684
781.25622559	2.39215684
781.26025391	2.37254906
781.26464844	2.37254906
781.26464844	2.37254906
781.26843262	2.35294127
781.27252197	2.35294127
781.27667236	2.35294127
781.27667236	2.33333325
781.28118896	2.33333325
781.28503418	2.33333325
781.28912354	2.31372547
781.29309082	2.31372547
781.29309082	2.31372547
781.29711914	2.31372547
781.30120850	2.29411769
781.30535889	2.29411769
781.30535889	2.29411769
781.30938721	2.29411769
781.31347656	2.29411769
781.31762695	2.27450991
781.32171631	2.27450991
781.32171631	2.27450991
781.32580566	2.27450991
781.32983398	2.25490189
781.33404541	2.25490189
781.33404541	2.25490189
781.33801270	2.25490189
781.34216309	2.25490189
781.34655762	2.23529410
781.35052490	2.23529410
781.35461426	2.23529410
781.35864258	2.23529410
781.36267090	2.23529410
781.36267090	2.21568632
781.36669922	2.21568632
781.37084961	2.21568632
781.37487793	2.21568632
781.37902832	2.21568632
781.38317871	2.21568632
781.38732910	2.21568632
781.39135742	2.21568632
781.39135742	2.19607854
781.39544678	2.19607854
781.39959717	2.19607854
781.40356445	2.19607854
781.40789795	2.19607854
781.41204834	2.19607854
781.41619873	2.19607854
781.42022705	2.19607854
781.42022705	2.19607854
781.42407227	2.19607854
781.42822266	2.19607854
781.43237305	2.21568632
781.43646240	2.21568632
781.44042969	2.21568632
781.44451904	2.21568632
781.44873047	2.21568632
781.44873047	2.23529410
781.45281982	2.23529410
781.45678711	2.23529410
781.46093750	2.23529410
781.46093750	2.25490189
781.46514893	2.25490189
781.46917725	2.27450991
781.47326660	2.27450991
781.47729492	2.27450991
781.47729492	2.29411769
781.48162842	2.29411769
781.48553467	2.31372547
781.48968506	2.31372547
781.48968506	2.33333325
781.49371338	2.33333325
781.49786377	2.35294127
781.50201416	2.35294127
781.50604248	2.37254906
781.50604248	2.39215684
781.51007080	2.39215684
781.51428223	2.41176462
781.51824951	2.41176462
781.51824951	2.43137264
781.52239990	2.43137264
781.52642822	2.45098042
781.53070068	2.45098042
781.53472900	2.47058821
781.53472900	2.47058821
781.53906250	2.49019599
781.54321289	2.49019599
781.54711914	2.50980401
781.54711914	2.50980401
781.55114746	2.50980401
781.55511475	2.52941179
781.55932617	2.52941179
781.56353760	2.52941179
781.56353760	2.52941179
781.56750488	2.54901958
781.57153320	2.54901958
781.57562256	2.54901958
781.57562256	2.54901958
781.57971191	2.54901958
781.58386230	2.54901958
781.58789063	2.54901958
781.59216309	2.54901958
781.59216309	2.54901958
781.59619141	2.54901958
781.60052490	2.54901958
781.60455322	2.52941179
781.60455322	2.52941179
781.60845947	2.52941179
781.61260986	2.50980401
781.61663818	2.50980401
781.62066650	2.50980401
781.62066650	2.49019599
781.62481689	2.49019599
781.62890625	2.49019599
781.63305664	2.47058821
781.63305664	2.47058821
781.63708496	2.45098042
781.64117432	2.45098042
781.64532471	2.43137264
781.64947510	2.43137264
781.64947510	2.43137264
781.65344238	2.41176462
781.65753174	2.41176462
781.66192627	2.39215684
781.66192627	2.39215684
781.66601563	2.37254906
781.67004395	2.37254906
781.67395020	2.35294127
781.67803955	2.35294127
781.67803955	2.33333325
781.68212891	2.33333325
781.68640137	2.31372547
781.69030762	2.29411769
781.69030762	2.29411769
781.69439697	2.27450991
781.69860840	2.25490189
781.70275879	2.25490189
781.70672607	2.21568632
781.71087646	2.21568632
781.71496582	2.19607854
781.71905518	2.17647052
781.71905518	2.17647052
781.72308350	2.15686274
781.72753906	2.15686274
781.73150635	2.13725495
781.73547363	2.11764717
781.73944092	2.09803915
781.74353027	2.07843137
781.74774170	2.07843137
781.74774170	2.05882359
781.75183105	2.03921580
781.75592041	2.03921580
781.75994873	2.01960778
781.76428223	2.00000000
781.76818848	1.98039210
781.77239990	1.96078432
781.77642822	1.96078432
781.77642822	1.94117641
781.78070068	1.92156863
781.78454590	1.92156863
781.78875732	1.90196073
781.79302979	1.88235295
781.79693604	1.88235295
781.80096436	1.86274505
781.80517578	1.86274505
781.80517578	1.84313726
781.80926514	1.84313726
781.81335449	1.82352936
781.81732178	1.82352936
781.82141113	1.80392158
781.82550049	1.80392158
781.82952881	1.80392158
781.83367920	1.78431368
781.83367920	1.78431368
781.83782959	1.78431368
781.84210205	1.78431368
781.84613037	1.76470590
781.84613037	1.76470590
781.85028076	1.76470590
781.85437012	1.76470590
781.85833740	1.76470590
781.86242676	1.76470590
781.86242676	1.76470590
781.86657715	1.76470590
781.87054443	1.76470590
781.87469482	1.76470590
781.87469482	1.74509799
781.87884521	1.74509799
781.88293457	1.74509799
781.88696289	1.74509799
781.89111328	1.74509799
781.89111328	1.74509799
781.89520264	1.74509799
781.89935303	1.74509799
781.90338135	1.76470590
781.90338135	1.76470590
781.90740967	1.76470590
781.91162109	1.76470590
781.91583252	1.76470590
781.92004395	1.76470590
781.92004395	1.76470590
781.92407227	1.76470590
781.92791748	1.78431368
781.93218994	1.78431368
781.93218994	1.78431368
781.93615723	1.78431368
781.94030762	1.80392158
781.94427490	1.80392158
781.94842529	1.82352936
781.94842529	1.82352936
781.95257568	1.84313726
781.95660400	1.84313726
781.96063232	1.86274505
781.96063232	1.86274505
781.96508789	1.88235295
781.96893311	1.90196073
781.97320557	1.92156863
781.97705078	1.94117641
781.97705078	1.94117641
781.98150635	1.96078432
781.98553467	1.98039210
781.98944092	2.00000000
781.98944092	2.01960778
781.99340820	2.03921580
781.99768066	2.05882359
782.00164795	2.07843137
782.00579834	2.09803915
782.00579834	2.11764717
782.00976563	2.13725495
782.01391602	2.15686274
782.01800537	2.19607854
782.01800537	2.21568632
782.02221680	2.23529410
782.02630615	2.25490189
782.03051758	2.27450991
782.03442383	2.29411769
782.03442383	2.31372547
782.03857422	2.31372547
782.04296875	2.33333325
782.04699707	2.35294127
782.04699707	2.37254906
782.05102539	2.39215684
782.05493164	2.41176462
782.05902100	2.41176462
782.06311035	2.43137264
782.06311035	2.45098042
782.06732178	2.47058821
782.07128906	2.47058821
782.07537842	2.49019599
782.07537842	2.50980401
782.07952881	2.50980401
782.08355713	2.52941179
782.08770752	2.52941179
782.09179688	2.54901958
782.09179688	2.54901958
782.09588623	2.56862736
782.09997559	2.56862736
782.10412598	2.58823538
782.10412598	2.58823538
782.10833740	2.58823538
782.11254883	2.60784316
782.11639404	2.60784316
782.12042236	2.60784316
782.12457275	2.60784316
782.12866211	2.62745094
782.13281250	2.62745094
782.13281250	2.62745094
782.13677979	2.62745094
782.14099121	2.62745094
782.14501953	2.62745094
782.14929199	2.62745094
782.15332031	2.62745094
782.15728760	2.62745094
782.16143799	2.62745094
782.16143799	2.60784316
782.16571045	2.60784316
782.16979980	2.60784316
782.17382813	2.60784316
782.17779541	2.60784316
782.18206787	2.60784316
782.18603516	2.60784316
782.19018555	2.62745094
782.19018555	2.62745094
782.19421387	2.64705873
782.19830322	2.64705873
782.20239258	2.66666675
782.20642090	2.68627453
782.21051025	2.70588231
782.21490479	2.70588231
782.21881104	2.72549009
782.21881104	2.74509811
782.22290039	2.74509811
782.22692871	2.76470590
782.23138428	2.78431368
782.23138428	2.80392146
782.23541260	2.80392146
782.23931885	2.82352948
782.24334717	2.84313726
782.24749756	2.84313726
782.24749756	2.86274505
782.25158691	2.88235283
782.25567627	2.88235283
782.25982666	2.90196085
782.25982666	2.90196085
782.26391602	2.92156863
782.26794434	2.92156863
782.27203369	2.92156863
782.27624512	2.94117641
782.27624512	2.94117641
782.28063965	2.96078420
782.28430176	2.96078420
782.28839111	2.96078420
782.28839111	2.96078420
782.29272461	2.96078420
782.29687500	2.98039222
782.30096436	2.98039222
782.30487061	2.98039222
782.30487061	2.98039222
782.30889893	2.98039222
782.31286621	2.98039222
782.31713867	2.98039222
782.31713867	2.98039222
782.32122803	2.96078420
782.32525635	2.96078420
782.32940674	2.96078420
782.33349609	2.96078420
782.33349609	2.96078420
782.33752441	2.94117641
782.34167480	2.94117641
782.34576416	2.94117641
782.34576416	2.92156863
782.34979248	2.92156863
782.35388184	2.92156863
782.35815430	2.90196085
782.36242676	2.90196085
782.36242676	2.88235283
782.36633301	2.88235283
782.37036133	2.86274505
782.37438965	2.86274505
782.37438965	2.84313726
782.37860107	2.82352948
782.38275146	2.82352948
782.38665771	2.80392146
782.39074707	2.80392146
782.39074707	2.78431368
782.39501953	2.78431368
782.39929199	2.76470590
782.40301514	2.76470590
782.40301514	2.74509811
782.40728760	2.74509811
782.41137695	2.74509811
782.41546631	2.72549009
782.41979980	2.72549009
782.41979980	2.72549009
782.42376709	2.72549009
782.42791748	2.72549009
782.43206787	2.72549009
782.43206787	2.72549009
782.43579102	2.72549009
782.44000244	2.72549009
782.44403076	2.72549009
782.44860840	2.74509811
782.45233154	2.74509811
782.45629883	2.74509811
782.46038818	2.76470590
782.46038818	2.76470590
782.46484375	2.76470590
782.46862793	2.78431368
782.47277832	2.78431368
782.47680664	2.80392146
782.48126221	2.82352948
782.48510742	2.82352948
782.48937988	2.82352948
782.48937988	2.84313726
782.49353027	2.84313726
782.49743652	2.86274505
782.50146484	2.86274505
782.50555420	2.88235283
782.50958252	2.88235283
782.51385498	2.90196085
782.51788330	2.90196085
782.51788330	2.92156863
782.52191162	2.92156863
782.52600098	2.92156863
782.53021240	2.92156863
782.53417969	2.94117641
782.53839111	2.94117641
782.54241943	2.94117641
782.54656982	2.94117641
782.54656982	2.94117641
782.55059814	2.94117641
782.55493164	2.94117641
782.55877686	2.94117641
782.56286621	2.94117641
782.56695557	2.94117641
782.57104492	2.94117641
782.57519531	2.94117641
782.57519531	2.94117641
782.57928467	2.94117641
782.58331299	2.94117641
782.58746338	2.94117641
782.59155273	2.92156863
782.59570313	2.92156863
782.59967041	2.92156863
782.60382080	2.92156863
782.60382080	2.92156863
782.60791016	2.92156863
782.61224365	2.90196085
782.61645508	2.90196085
782.61645508	2.90196085
782.62054443	2.88235283
782.62432861	2.88235283
782.62841797	2.88235283
782.63256836	2.86274505
782.63256836	2.86274505
782.63671875	2.84313726
782.64074707	2.84313726
782.64477539	2.82352948
782.64477539	2.82352948
782.64892578	2.80392146
782.65289307	2.80392146
782.65704346	2.78431368
782.66119385	2.78431368
782.66119385	2.76470590
782.66528320	2.76470590
782.66931152	2.74509811
782.67358398	2.74509811
782.67358398	2.72549009
782.67785645	2.72549009
782.68188477	2.70588231
782.68585205	2.68627453
782.68981934	2.68627453
782.68981934	2.66666675
782.69390869	2.66666675
782.69824219	2.64705873
782.70220947	2.64705873
782.70220947	2.62745094
782.70629883	2.60784316
782.71032715	2.60784316
782.71478271	2.58823538
782.71862793	2.58823538
782.71862793	2.56862736
782.72265625	2.54901958
782.72668457	2.54901958
782.73089600	2.52941179
782.73089600	2.52941179
782.73492432	2.50980401
782.73919678	2.49019599
782.74328613	2.49019599
782.74749756	2.47058821
782.74749756	2.47058821
782.75134277	2.45098042
782.75537109	2.43137264
782.75958252	2.43137264
782.75958252	2.41176462
782.76385498	2.41176462
782.76770020	2.39215684
782.77178955	2.37254906
782.77593994	2.37254906
782.77593994	2.35294127
782.78002930	2.33333325
782.78405762	2.33333325
782.78814697	2.31372547
782.78814697	2.29411769
782.79248047	2.29411769
782.79620361	2.27450991
782.80065918	2.25490189
782.80480957	2.25490189
782.80480957	2.23529410
782.80871582	2.23529410
782.81268311	2.21568632
782.81683350	2.21568632
782.81683350	2.19607854
782.82086182	2.19607854
782.82501221	2.17647052
782.82910156	2.17647052
782.83325195	2.15686274
782.83728027	2.15686274
782.84136963	2.15686274
782.84558105	2.13725495
782.84558105	2.13725495
782.84960938	2.13725495
782.85363770	2.11764717
782.85784912	2.11764717
782.86212158	2.11764717
782.86614990	2.09803915
782.87023926	2.09803915
782.87432861	2.09803915
782.87432861	2.09803915
782.87829590	2.09803915
782.88244629	2.09803915
782.88641357	2.09803915
782.89056396	2.09803915
782.89471436	2.09803915
782.89886475	2.09803915
782.90301514	2.09803915
782.90301514	2.09803915
782.90692139	2.09803915
782.91107178	2.09803915
782.91516113	2.11764717
782.92413330	2.11764717
782.92523193	2.11764717
782.92773438	2.13725495
782.93170166	2.13725495
782.93170166	2.13725495
782.93585205	2.15686274
782.93975830	2.15686274
782.94390869	2.17647052
782.94812012	2.19607854
782.95227051	2.19607854
782.95623779	2.21568632
782.96032715	2.23529410
782.96032715	2.23529410
782.96447754	2.25490189
782.96862793	2.25490189
782.97271729	2.27450991
782.97271729	2.29411769
782.97674561	2.29411769
782.98083496	2.31372547
782.98498535	2.31372547
782.98913574	2.33333325
782.98913574	2.35294127
782.99291992	2.35294127
782.99700928	2.37254906
783.00115967	2.37254906
783.00115967	2.39215684
783.00531006	2.39215684
783.00927734	2.41176462
783.01342773	2.41176462
783.01751709	2.41176462
783.01751709	2.43137264
783.02172852	2.43137264
783.02581787	2.43137264
783.02990723	2.43137264
783.02990723	2.45098042
783.03393555	2.45098042
783.03802490	2.45098042
783.04217529	2.45098042
783.04656982	2.45098042
783.04656982	2.45098042
783.05084229	2.45098042
783.05444336	2.45098042
783.05859375	2.45098042
783.05859375	2.45098042
783.06250000	2.45098042
783.06671143	2.43137264
783.07080078	2.43137264
783.07489014	2.43137264
783.07489014	2.43137264
783.07891846	2.41176462
783.08312988	2.41176462
783.08734131	2.41176462
783.08734131	2.39215684
783.09136963	2.39215684
783.09545898	2.37254906
783.09948730	2.37254906
783.10351563	2.35294127
783.10351563	2.35294127
783.10766602	2.33333325
783.11206055	2.33333325
783.11608887	2.31372547
783.11608887	2.29411769
783.11993408	2.29411769
783.12402344	2.27450991
783.12817383	2.27450991
783.13238525	2.25490189
783.13238525	2.23529410
783.13635254	2.23529410
783.14044189	2.21568632
783.14471436	2.19607854
783.14471436	2.19607854
783.14868164	2.17647052
783.15264893	2.15686274
783.15679932	2.15686274
783.16094971	2.13725495
783.16094971	2.11764717
783.16503906	2.11764717
783.16906738	2.09803915
783.17358398	2.09803915
783.17358398	2.07843137
783.17730713	2.05882359
783.18157959	2.05882359
783.18554688	2.03921580
783.18969727	2.03921580
783.18969727	2.01960778
783.19372559	2.01960778
783.19787598	2.00000000
783.20196533	2.00000000
783.20196533	1.98039210
783.20593262	1.98039210
783.21002197	1.96078432
783.21441650	1.96078432
783.21838379	1.94117641
783.22241211	1.92156863
783.22637939	1.92156863
783.23077393	1.90196073
783.23077393	1.90196073
783.23492432	1.88235295
783.23883057	1.88235295
783.24279785	1.86274505
783.24694824	1.84313726
783.25115967	1.84313726
783.25518799	1.82352936
783.25933838	1.82352936
783.25933838	1.82352936
783.26342773	1.80392158
783.26745605	1.80392158
783.27154541	1.78431368
783.27575684	1.78431368
783.27966309	1.76470590
783.28381348	1.76470590
783.28796387	1.74509799
783.28796387	1.74509799
783.29217529	1.74509799
783.29614258	1.74509799
783.30053711	1.72549021
783.30432129	1.72549021
783.30841064	1.70588231
783.31237793	1.70588231
783.31683350	1.70588231
783.31683350	1.70588231
783.32067871	1.70588231
783.32476807	1.70588231
783.32897949	1.70588231
783.33300781	1.68627453
783.33703613	1.68627453
783.34118652	1.68627453
783.34533691	1.68627453
783.34533691	1.68627453
783.34930420	1.68627453
783.35339355	1.68627453
783.35760498	1.68627453
783.35760498	1.68627453
783.36193848	1.68627453
783.36590576	1.70588231
783.36981201	1.70588231
783.37390137	1.70588231
783.37390137	1.70588231
783.37805176	1.70588231
783.38226318	1.72549021
783.38629150	1.72549021
783.38629150	1.72549021
783.39031982	1.74509799
783.39477539	1.74509799
783.39855957	1.76470590
783.40264893	1.78431368
783.40264893	1.78431368
783.40673828	1.80392158
783.41082764	1.82352936
783.41491699	1.84313726
783.41491699	1.86274505
783.41906738	1.86274505
783.42327881	1.88235295
783.42718506	1.90196073
783.43151855	1.92156863
783.43151855	1.94117641
783.43542480	1.98039210
783.43939209	2.00000000
783.44366455	2.01960778
783.44366455	2.03921580
783.44769287	2.05882359
783.45178223	2.07843137
783.45581055	2.09803915
783.45996094	2.13725495
783.45996094	2.15686274
783.46417236	2.17647052
783.46820068	2.19607854
783.47235107	2.21568632
783.47235107	2.25490189
783.47625732	2.27450991
783.48077393	2.29411769
783.48480225	2.31372547
783.48895264	2.33333325
783.48895264	2.37254906
783.49291992	2.39215684
783.49694824	2.41176462
783.50097656	2.43137264
783.50097656	2.45098042
783.50500488	2.47058821
783.50927734	2.49019599
783.51336670	2.50980401
783.51727295	2.52941179
783.51727295	2.54901958
783.52142334	2.56862736
783.52557373	2.58823538
783.52954102	2.58823538
783.52954102	2.60784316
783.53363037	2.62745094
783.53778076	2.64705873
783.54193115	2.64705873
783.54626465	2.66666675
783.54626465	2.68627453
783.55029297	2.68627453
783.55438232	2.70588231
783.55828857	2.70588231
783.55828857	2.72549009
783.56237793	2.72549009
783.56652832	2.72549009
783.57055664	2.74509811
783.57470703	2.74509811
783.57470703	2.74509811
783.57873535	2.74509811
783.58282471	2.74509811
783.58691406	2.74509811
783.58691406	2.74509811
783.59100342	2.74509811
783.59515381	2.74509811
783.59936523	2.74509811
783.60351563	2.74509811
783.60742188	2.74509811
783.61157227	2.74509811
783.61590576	2.74509811
783.61590576	2.74509811
783.61975098	2.74509811
783.62390137	2.74509811
783.62792969	2.72549009
783.63214111	2.72549009
783.63604736	2.72549009
783.64013672	2.72549009
783.64434814	2.70588231
783.64434814	2.70588231
783.64843750	2.70588231
783.65246582	2.70588231
783.65655518	2.70588231
783.66070557	2.68627453
783.66485596	2.68627453
783.66888428	2.68627453
783.67297363	2.66666675
783.67297363	2.66666675
783.67700195	2.66666675
783.68133545	2.66666675
783.68536377	2.66666675
783.68927002	2.64705873
783.69335938	2.64705873
783.69763184	2.64705873
783.70172119	2.62745094
783.70172119	2.62745094
783.70568848	2.62745094
783.70977783	2.62745094
783.71411133	2.60784316
783.71807861	2.60784316
783.72216797	2.60784316
783.72625732	2.58823538
783.73083496	2.58823538
783.73083496	2.58823538
783.73449707	2.58823538
783.73889160	2.56862736
783.74291992	2.56862736
783.74291992	2.56862736
783.74694824	2.56862736
783.75085449	2.54901958
783.75488281	2.54901958
783.75921631	2.54901958
783.75921631	2.54901958
783.76312256	2.52941179
783.76733398	2.52941179
783.77130127	2.52941179
783.77130127	2.52941179
783.77545166	2.52941179
783.77941895	2.50980401
783.78350830	2.50980401
783.78765869	2.50980401
783.78765869	2.50980401
783.79180908	2.50980401
783.79583740	2.49019599
783.80017090	2.49019599
783.80017090	2.49019599
783.80432129	2.49019599
783.80816650	2.49019599
783.81243896	2.47058821
783.81646729	2.47058821
783.81646729	2.47058821
783.82037354	2.47058821
783.82458496	2.45098042
783.82867432	2.45098042
783.82867432	2.45098042
783.83270264	2.45098042
783.83679199	2.43137264
783.84088135	2.43137264
783.84503174	2.43137264
783.84503174	2.43137264
783.84906006	2.41176462
783.85327148	2.41176462
783.85736084	2.41176462
783.85736084	2.41176462
783.86157227	2.41176462
783.86572266	2.41176462
783.86962891	2.39215684
783.87371826	2.39215684
783.87371826	2.39215684
783.87774658	2.39215684
783.88201904	2.39215684
783.88604736	2.39215684
783.88604736	2.41176462
783.89007568	2.41176462
783.89416504	2.41176462
783.89825439	2.41176462
783.90240479	2.41176462
783.90240479	2.43137264
783.90643311	2.43137264
783.91052246	2.43137264
783.91473389	2.45098042
783.91473389	2.45098042
783.91882324	2.47058821
783.92285156	2.47058821
783.92718506	2.49019599
783.93133545	2.49019599
783.93133545	2.50980401
783.93530273	2.50980401
783.93927002	2.52941179
783.94323730	2.52941179
783.94323730	2.54901958
783.94744873	2.54901958
783.95159912	2.56862736
783.95568848	2.56862736
783.95971680	2.58823538
783.95971680	2.58823538
783.96398926	2.60784316
783.96789551	2.60784316
783.97204590	2.62745094
783.97204590	2.62745094
783.97619629	2.64705873
783.98034668	2.64705873
783.98449707	2.64705873
783.98840332	2.66666675
783.99243164	2.66666675
783.99652100	2.68627453
784.00067139	2.68627453
784.00067139	2.68627453
784.00482178	2.68627453
784.00891113	2.68627453
784.01293945	2.70588231
784.01708984	2.70588231
784.02117920	2.70588231
784.02526855	2.70588231
784.02929688	2.70588231
784.02929688	2.70588231
784.03363037	2.70588231
784.03753662	2.70588231
784.04168701	2.70588231
784.04583740	2.70588231
784.04980469	2.70588231
784.05401611	2.68627453
784.05804443	2.68627453
784.05804443	2.68627453
784.06219482	2.68627453
784.06634521	2.66666675
784.07025146	2.66666675
784.07440186	2.64705873
784.07861328	2.64705873
784.08258057	2.62745094
784.08660889	2.62745094
784.08660889	2.60784316
784.09075928	2.60784316
784.09490967	2.58823538
784.09906006	2.58823538
784.09906006	2.56862736
784.10308838	2.54901958
784.10742188	2.54901958
784.11132813	2.52941179
784.11547852	2.50980401
784.11547852	2.50980401
784.11944580	2.49019599
784.12353516	2.47058821
784.12768555	2.47058821
784.12768555	2.45098042
784.13189697	2.43137264
784.13592529	2.43137264
784.13995361	2.41176462
784.14416504	2.39215684
784.14416504	2.39215684
784.14819336	2.37254906
784.15234375	2.35294127
784.15631104	2.35294127
784.15631104	2.33333325
784.16052246	2.33333325
784.16491699	2.31372547
784.16894531	2.29411769
784.17291260	2.29411769
784.17291260	2.27450991
784.17694092	2.27450991
784.18096924	2.25490189
784.18505859	2.25490189
784.18505859	2.23529410
784.18908691	2.23529410
784.19329834	2.21568632
784.19726563	2.21568632
784.20147705	2.19607854
784.20147705	2.19607854
784.20568848	2.19607854
784.20953369	2.17647052
784.21398926	2.17647052
784.21398926	2.17647052
784.21783447	2.15686274
784.22192383	2.15686274
784.22613525	2.15686274
784.23040771	2.15686274
784.23040771	2.15686274
784.23443604	2.13725495
784.23828125	2.13725495
784.24249268	2.13725495
784.24249268	2.13725495
784.24639893	2.13725495
784.25054932	2.13725495
784.25469971	2.11764717
784.25878906	2.11764717
784.25878906	2.11764717
784.26293945	2.11764717
784.26702881	2.11764717
784.27105713	2.11764717
784.27105713	2.11764717
784.27514648	2.09803915
784.27929688	2.09803915
784.28332520	2.09803915
784.28741455	2.09803915
784.28741455	2.09803915
784.29156494	2.09803915
784.29577637	2.09803915
784.29980469	2.09803915
784.29980469	2.09803915
784.30383301	2.09803915
784.30798340	2.09803915
784.31213379	2.09803915
784.31616211	2.09803915
784.31616211	2.09803915
784.32031250	2.09803915
784.32427979	2.09803915
784.32855225	2.09803915
784.32855225	2.09803915
784.33245850	2.09803915
784.33654785	2.09803915
784.34069824	2.07843137
784.34484863	2.07843137
784.34893799	2.07843137
784.35296631	2.09803915
784.35736084	2.09803915
784.35736084	2.09803915
784.36132813	2.09803915
784.36529541	2.09803915
784.36932373	2.09803915
784.37347412	2.11764717
784.37756348	2.11764717
784.38177490	2.11764717
784.38580322	2.13725495
784.38580322	2.13725495
784.38983154	2.15686274
784.39392090	2.15686274
784.39807129	2.17647052
784.40222168	2.19607854
784.40631104	2.21568632
784.41027832	2.23529410
784.41479492	2.25490189
784.41479492	2.27450991
784.41870117	2.29411769
784.42279053	2.31372547
784.42675781	2.33333325
784.43084717	2.37254906
784.43493652	2.39215684
784.43890381	2.41176462
784.44311523	2.43137264
784.44311523	2.45098042
784.44732666	2.47058821
784.45129395	2.49019599
784.45544434	2.50980401
784.45947266	2.54901958
784.46392822	2.56862736
784.46771240	2.58823538
784.47180176	2.60784316
784.47180176	2.60784316
784.47576904	2.62745094
784.48010254	2.64705873
784.48425293	2.66666675
784.48425293	2.68627453
784.48840332	2.70588231
784.49230957	2.70588231
784.49633789	2.72549009
784.50048828	2.74509811
784.50048828	2.76470590
784.50451660	2.76470590
784.50866699	2.78431368
784.51263428	2.78431368
784.51263428	2.80392146
784.51678467	2.80392146
784.52087402	2.82352948
784.52502441	2.82352948
784.52905273	2.82352948
784.52905273	2.84313726
784.53332520	2.84313726
784.53729248	2.84313726
784.54144287	2.84313726
784.54144287	2.86274505
784.54565430	2.86274505
784.54974365	2.86274505
784.55389404	2.86274505
784.55786133	2.86274505
784.55786133	2.86274505
784.56201172	2.86274505
784.56597900	2.86274505
784.57012939	2.84313726
784.57012939	2.84313726
784.57415771	2.84313726
784.57824707	2.84313726
784.58233643	2.84313726
784.58648682	2.82352948
784.58648682	2.82352948
784.59051514	2.82352948
784.59466553	2.80392146
784.59875488	2.80392146
784.59875488	2.80392146
784.60284424	2.78431368
784.60693359	2.78431368
784.61132813	2.78431368
784.61535645	2.76470590
784.61535645	2.76470590
784.61932373	2.74509811
784.62335205	2.74509811
784.62744141	2.72549009
784.62744141	2.72549009
784.63177490	2.72549009
784.63562012	2.70588231
784.63964844	2.70588231
784.64373779	2.68627453
784.64373779	2.68627453
784.64801025	2.66666675
784.65203857	2.66666675
784.65606689	2.66666675
784.65606689	2.64705873
784.66021729	2.64705873
784.66467285	2.62745094
784.66839600	2.62745094
784.67248535	2.62745094
784.67248535	2.60784316
784.67675781	2.60784316
784.68084717	2.58823538
784.68481445	2.58823538
784.68481445	2.58823538
784.68878174	2.56862736
784.69299316	2.56862736
784.69726563	2.56862736
784.70123291	2.54901958
784.70123291	2.54901958
784.70526123	2.54901958
784.70928955	2.52941179
784.71362305	2.52941179
784.71362305	2.52941179
784.71759033	2.50980401
784.72167969	2.50980401
784.72564697	2.50980401
784.72998047	2.49019599
784.73388672	2.49019599
784.73834229	2.49019599
784.74261475	2.47058821
784.74261475	2.47058821
784.74639893	2.47058821
784.75036621	2.45098042
784.75439453	2.45098042
784.75854492	2.43137264
784.76257324	2.43137264
784.76666260	2.43137264
784.77081299	2.43137264
784.77081299	2.41176462
784.77496338	2.41176462
784.77893066	2.41176462
784.78302002	2.39215684
784.78723145	2.39215684
784.79132080	2.39215684
784.79528809	2.37254906
784.79968262	2.37254906
784.79968262	2.37254906
784.80383301	2.37254906
784.80780029	2.35294127
784.81182861	2.35294127
784.81591797	2.35294127
784.81994629	2.33333325
784.82409668	2.33333325
784.82812500	2.33333325
784.82812500	2.33333325
784.83227539	2.33333325
784.83630371	2.33333325
784.84039307	2.33333325
784.84454346	2.33333325
784.84881592	2.33333325
784.85266113	2.33333325
784.85681152	2.33333325
784.85681152	2.33333325
784.86126709	2.35294127
784.86529541	2.35294127
784.86901855	2.35294127
784.86901855	2.35294127
784.87335205	2.37254906
784.87725830	2.37254906
784.88165283	2.39215684
784.88592529	2.39215684
784.88592529	2.41176462
784.88952637	2.41176462
784.89392090	2.43137264
784.89819336	2.43137264
784.89819336	2.45098042
784.90191650	2.45098042
784.90588379	2.47058821
784.91003418	2.47058821
784.91448975	2.49019599
784.91448975	2.50980401
784.91827393	2.50980401
784.92230225	2.52941179
784.92663574	2.52941179
784.92663574	2.54901958
784.93072510	2.54901958
784.93469238	2.56862736
784.93872070	2.58823538
784.94274902	2.58823538
784.94274902	2.60784316
784.94708252	2.60784316
784.95104980	2.62745094
784.95513916	2.62745094
784.95513916	2.64705873
784.95928955	2.64705873
784.96368408	2.64705873
784.96746826	2.66666675
784.97161865	2.66666675
784.97161865	2.66666675
784.97558594	2.68627453
784.97973633	2.68627453
784.98376465	2.68627453
784.98376465	2.68627453
784.98803711	2.70588231
784.99188232	2.70588231
784.99603271	2.70588231
785.00036621	2.70588231
785.00036621	2.70588231
785.00427246	2.70588231
785.00842285	2.70588231
785.01239014	2.70588231
785.01239014	2.70588231
785.01672363	2.70588231
785.02075195	2.70588231
785.02478027	2.70588231
785.02886963	2.70588231
785.02886963	2.70588231
785.03289795	2.68627453
785.03741455	2.68627453
785.04138184	2.68627453
785.04138184	2.68627453
785.04559326	2.66666675
785.04937744	2.66666675
785.05346680	2.64705873
785.05755615	2.64705873
785.05755615	2.64705873
785.06170654	2.62745094
785.06573486	2.62745094
785.06976318	2.60784316
785.06976318	2.58823538
785.07397461	2.58823538
785.07806396	2.56862736
785.08203125	2.56862736
785.08630371	2.54901958
785.08630371	2.54901958
785.09027100	2.52941179
785.09448242	2.52941179
785.09875488	2.50980401
785.09875488	2.50980401
785.10278320	2.49019599
785.10687256	2.49019599
785.11090088	2.47058821
785.11505127	2.47058821
785.11889648	2.45098042
785.12304688	2.45098042
785.12713623	2.43137264
785.12713623	2.43137264
785.13128662	2.41176462
785.13531494	2.41176462
785.13946533	2.39215684
785.14355469	2.37254906
785.14807129	2.37254906
785.15173340	2.37254906
785.15576172	2.35294127
785.15576172	2.35294127
785.15997314	2.33333325
785.16418457	2.33333325
785.16839600	2.33333325
785.17230225	2.31372547
785.17639160	2.29411769
785.18048096	2.29411769
785.18457031	2.29411769
785.18457031	2.27450991
785.18853760	2.27450991
785.19262695	2.27450991
785.19696045	2.27450991
785.20092773	2.25490189
785.20507813	2.25490189
785.20910645	2.25490189
785.21350098	2.23529410
785.21350098	2.23529410
785.21740723	2.23529410
785.22137451	2.23529410
785.22558594	2.23529410
785.22558594	2.23529410
785.22973633	2.23529410
785.23370361	2.21568632
785.23785400	2.21568632
785.24194336	2.21568632
785.24194336	2.21568632
785.24591064	2.21568632
785.25012207	2.21568632
785.25415039	2.21568632
785.25415039	2.21568632
785.25823975	2.21568632
785.26226807	2.21568632
785.26641846	2.21568632
785.27050781	2.21568632
785.27050781	2.21568632
785.27465820	2.21568632
785.27862549	2.19607854
785.28277588	2.19607854
785.28277588	2.19607854
785.28692627	2.19607854
785.29132080	2.19607854
785.29534912	2.19607854
785.29937744	2.19607854
785.29937744	2.19607854
785.30334473	2.19607854
785.30737305	2.19607854
785.31158447	2.21568632
785.31158447	2.21568632
785.31561279	2.21568632
785.31964111	2.21568632
785.32379150	2.21568632
785.32794189	2.21568632
785.32794189	2.21568632
785.33190918	2.21568632
785.33618164	2.21568632
785.34033203	2.23529410
785.34033203	2.23529410
785.34429932	2.23529410
785.34832764	2.23529410
785.35253906	2.25490189
785.35675049	2.25490189
785.35675049	2.27450991
785.36077881	2.27450991
785.36529541	2.27450991
785.36901855	2.29411769
785.36901855	2.31372547
785.37292480	2.31372547
785.37707520	2.33333325
785.38128662	2.33333325
785.38531494	2.35294127
785.38531494	2.37254906
785.38934326	2.37254906
785.39337158	2.39215684
785.39764404	2.41176462
785.39764404	2.41176462
785.40167236	2.43137264
785.40563965	2.45098042
785.40985107	2.47058821
785.41412354	2.47058821
785.41412354	2.49019599
785.41827393	2.50980401
785.42205811	2.50980401
785.42633057	2.52941179
785.42633057	2.54901958
785.43035889	2.54901958
785.43444824	2.56862736
785.43847656	2.56862736
785.44250488	2.58823538
785.44250488	2.58823538
785.44714355	2.60784316
785.45080566	2.62745094
785.45489502	2.62745094
785.45489502	2.64705873
785.45892334	2.64705873
785.46313477	2.64705873
785.46728516	2.66666675
785.47137451	2.66666675
785.47546387	2.68627453
785.47967529	2.68627453
785.48376465	2.68627453
785.48376465	2.68627453
785.48785400	2.70588231
785.49169922	2.70588231
785.49584961	2.70588231
785.49993896	2.70588231
785.50408936	2.70588231
785.50817871	2.70588231
785.51232910	2.70588231
785.51232910	2.70588231
785.51629639	2.70588231
785.52050781	2.70588231
785.52453613	2.68627453
785.52856445	2.68627453
785.53271484	2.68627453
785.53680420	2.68627453
785.54089355	2.66666675
785.54089355	2.66666675
785.54498291	2.66666675
785.54913330	2.64705873
785.55328369	2.64705873
785.55731201	2.62745094
785.56140137	2.62745094
785.56549072	2.62745094
785.56958008	2.60784316
785.56958008	2.60784316
785.57366943	2.58823538
785.57775879	2.58823538
785.58197021	2.58823538
785.58599854	2.56862736
785.59008789	2.54901958
785.59423828	2.54901958
785.59844971	2.52941179
785.59844971	2.52941179
785.60229492	2.52941179
785.60644531	2.50980401
785.61071777	2.50980401
785.61071777	2.49019599
785.61474609	2.49019599
785.61871338	2.47058821
785.62280273	2.47058821
785.62689209	2.45098042
785.62689209	2.45098042
785.63122559	2.43137264
785.63519287	2.43137264
785.63934326	2.41176462
785.63934326	2.41176462
785.64343262	2.39215684
785.64752197	2.39215684
785.65161133	2.37254906
785.65563965	2.37254906
785.65563965	2.35294127
785.65972900	2.35294127
785.66394043	2.35294127
785.66796875	2.33333325
785.66796875	2.33333325
785.67193604	2.31372547
785.67626953	2.31372547
785.68035889	2.31372547
785.68432617	2.29411769
785.68432617	2.29411769
785.68841553	2.27450991
785.69238281	2.27450991
785.69653320	2.27450991
785.69653320	2.25490189
785.70074463	2.25490189
785.70477295	2.25490189
785.70880127	2.23529410
785.71301270	2.23529410
785.71301270	2.23529410
785.71704102	2.21568632
785.72119141	2.21568632
785.72540283	2.21568632
785.72540283	2.19607854
785.72949219	2.19607854
785.73364258	2.19607854
785.73760986	2.17647052
785.74176025	2.17647052
785.74176025	2.17647052
785.74572754	2.15686274
785.74981689	2.15686274
785.75408936	2.15686274
785.75408936	2.15686274
785.75817871	2.13725495
785.76208496	2.13725495
785.76635742	2.13725495
785.77038574	2.11764717
785.77038574	2.11764717
785.77441406	2.11764717
785.77838135	2.11764717
785.78259277	2.09803915
785.78259277	2.09803915
785.78674316	2.09803915
785.79077148	2.09803915
785.79479980	2.09803915
785.79913330	2.09803915
785.79913330	2.09803915
785.80303955	2.09803915
785.80725098	2.07843137
785.81127930	2.07843137
785.81127930	2.07843137
785.81530762	2.07843137
785.81945801	2.07843137
785.82354736	2.09803915
785.82775879	2.09803915
785.82775879	2.09803915
785.83166504	2.09803915
785.83581543	2.09803915
785.84002686	2.09803915
785.84002686	2.11764717
785.84399414	2.11764717
785.84820557	2.11764717
785.85229492	2.13725495
785.85644531	2.15686274
785.86065674	2.15686274
785.86486816	2.17647052
785.86871338	2.17647052
785.86871338	2.19607854
785.87274170	2.21568632
785.87677002	2.23529410
785.88098145	2.25490189
785.88507080	2.29411769
785.88903809	2.31372547
785.89312744	2.33333325
785.89739990	2.35294127
785.89739990	2.39215684
785.90142822	2.41176462
785.90545654	2.43137264
785.90960693	2.47058821
785.91381836	2.52941179
785.91784668	2.54901958
785.92199707	2.58823538
785.92620850	2.60784316
785.92620850	2.62745094
785.93023682	2.66666675
785.93426514	2.68627453
785.93823242	2.72549009
785.94238281	2.76470590
785.94647217	2.78431368
785.95068359	2.80392146
785.95465088	2.84313726
785.95465088	2.86274505
785.95867920	2.88235283
785.96276855	2.90196085
785.96691895	2.92156863
785.97100830	2.94117641
785.97509766	2.96078420
785.97949219	2.98039222
785.98358154	2.98039222
785.98358154	3.00000000
785.98767090	3.01960778
785.99182129	3.01960778
785.99560547	3.03921580
785.99560547	3.03921580
785.99969482	3.05882359
786.00384521	3.05882359
786.00793457	3.05882359
786.01214600	3.05882359
786.01214600	3.07843137
786.01605225	3.07843137
786.02014160	3.07843137
786.02435303	3.07843137
786.02435303	3.07843137
786.02825928	3.07843137
786.03247070	3.07843137
786.03656006	3.07843137
786.04064941	3.07843137
786.04064941	3.07843137
786.04479980	3.07843137
786.04876709	3.07843137
786.05297852	3.05882359
786.05297852	3.05882359
786.05731201	3.05882359
786.06121826	3.05882359
786.06530762	3.03921580
786.06921387	3.03921580
786.06921387	3.01960778
786.07336426	3.01960778
786.07751465	3.01960778
786.08190918	3.00000000
786.08190918	3.00000000
786.08569336	2.98039222
786.08984375	2.98039222
786.09387207	2.96078420
786.09820557	2.96078420
786.09820557	2.94117641
786.10205078	2.94117641
786.10614014	2.92156863
786.11035156	2.90196085
786.11035156	2.90196085
786.11468506	2.88235283
786.11865234	2.88235283
786.12261963	2.86274505
786.12664795	2.86274505
786.12664795	2.84313726
786.13085938	2.82352948
786.13494873	2.82352948
786.13891602	2.80392146
786.13891602	2.78431368
786.14306641	2.78431368
786.14733887	2.76470590
786.15155029	2.76470590
786.15527344	2.74509811
786.15527344	2.72549009
786.15942383	2.72549009
786.16381836	2.70588231
786.16766357	2.70588231
786.16766357	2.68627453
786.17169189	2.66666675
786.17608643	2.66666675
786.18023682	2.64705873
786.18414307	2.64705873
786.18414307	2.62745094
786.18823242	2.62745094
786.19232178	2.62745094
786.19647217	2.60784316
786.19647217	2.60784316
786.20043945	2.60784316
786.20452881	2.58823538
786.20849609	2.58823538
786.21264648	2.58823538
786.21264648	2.58823538
786.21685791	2.58823538
786.22088623	2.56862736
786.22503662	2.56862736
786.22503662	2.56862736
786.22912598	2.56862736
786.23321533	2.54901958
786.23730469	2.54901958
786.24151611	2.54901958
786.24572754	2.52941179
786.24963379	2.52941179
786.25372314	2.52941179
786.25372314	2.52941179
786.25781250	2.50980401
786.26184082	2.50980401
786.26617432	2.50980401
786.27001953	2.49019599
786.27416992	2.49019599
786.27832031	2.49019599
786.28228760	2.49019599
786.28228760	2.47058821
786.28643799	2.47058821
786.29052734	2.47058821
786.29461670	2.47058821
786.29882813	2.45098042
786.30303955	2.45098042
786.30731201	2.45098042
786.31115723	2.45098042
786.31115723	2.43137264
786.31518555	2.43137264
786.31927490	2.43137264
786.32330322	2.43137264
786.32745361	2.43137264
786.33142090	2.43137264
786.33563232	2.43137264
786.33966064	2.43137264
786.33966064	2.43137264
786.34381104	2.43137264
786.34832764	2.43137264
786.35205078	2.43137264
786.35205078	2.43137264
786.35601807	2.45098042
786.36022949	2.45098042
786.36486816	2.45098042
786.36840820	2.47058821
786.36840820	2.47058821
786.37243652	2.49019599
786.37652588	2.49019599
786.38079834	2.50980401
786.38079834	2.50980401
786.38470459	2.52941179
786.38879395	2.54901958
786.39288330	2.54901958
786.39727783	2.56862736
786.39727783	2.58823538
786.40118408	2.60784316
786.40533447	2.60784316
786.40930176	2.62745094
786.40930176	2.64705873
786.41345215	2.66666675
786.41760254	2.68627453
786.42175293	2.70588231
786.42590332	2.72549009
786.42590332	2.74509811
786.42980957	2.76470590
786.43395996	2.78431368
786.43804932	2.80392146
786.43804932	2.82352948
786.44201660	2.84313726
786.44635010	2.86274505
786.45037842	2.88235283
786.45440674	2.90196085
786.45440674	2.92156863
786.45843506	2.92156863
786.46252441	2.94117641
786.46667480	2.96078420
786.46667480	2.98039222
786.47076416	2.98039222
786.47497559	3.00000000
786.47894287	3.01960778
786.48309326	3.01960778
786.48309326	3.03921580
786.48742676	3.03921580
786.49127197	3.05882359
786.49536133	3.05882359
786.49536133	3.05882359
786.49945068	3.07843137
786.50360107	3.07843137
786.50769043	3.07843137
786.51184082	3.07843137
786.51184082	3.07843137
786.51593018	3.07843137
786.51989746	3.07843137
786.52404785	3.07843137
786.52404785	3.07843137
786.52825928	3.07843137
786.53240967	3.07843137
786.53631592	3.07843137
786.54034424	3.07843137
786.54034424	3.05882359
786.54455566	3.05882359
786.54858398	3.05882359
786.55267334	3.03921580
786.55267334	3.03921580
786.55688477	3.01960778
786.56103516	3.01960778
786.56518555	3.01960778
786.56903076	3.00000000
786.56903076	2.98039222
786.57312012	2.98039222
786.57727051	2.96078420
786.58142090	2.96078420
786.58142090	2.94117641
786.58544922	2.94117641
786.58953857	2.92156863
786.59368896	2.90196085
786.59808350	2.88235283
786.60205078	2.88235283
786.60614014	2.86274505
786.61016846	2.84313726
786.61016846	2.84313726
786.61425781	2.82352948
786.61834717	2.80392146
786.62231445	2.80392146
786.62646484	2.76470590
786.63067627	2.76470590
786.63470459	2.74509811
786.63867188	2.72549009
786.63867188	2.72549009
786.64282227	2.70588231
786.64733887	2.68627453
786.65112305	2.68627453
786.65515137	2.66666675
786.65930176	2.64705873
786.66357422	2.62745094
786.66766357	2.62745094
786.66766357	2.60784316
786.67144775	2.60784316
786.67559814	2.58823538
786.67962646	2.56862736
786.68426514	2.54901958
786.68798828	2.54901958
786.69189453	2.52941179
786.69616699	2.52941179
786.69616699	2.50980401
786.70025635	2.49019599
786.70428467	2.49019599
786.70843506	2.47058821
786.71246338	2.45098042
786.71655273	2.45098042
786.72064209	2.43137264
786.72485352	2.41176462
786.72485352	2.41176462
786.72900391	2.39215684
786.73291016	2.39215684
786.73706055	2.37254906
786.73706055	2.37254906
786.74114990	2.35294127
786.74530029	2.33333325
786.74945068	2.33333325
786.75341797	2.31372547
786.75341797	2.31372547
786.75756836	2.29411769
786.76159668	2.29411769
786.76574707	2.27450991
786.76574707	2.25490189
786.76989746	2.25490189
786.77404785	2.23529410
786.77801514	2.23529410
786.78204346	2.21568632
786.78204346	2.21568632
786.78643799	2.19607854
786.79052734	2.19607854
786.79443359	2.17647052
786.79443359	2.17647052
786.79846191	2.15686274
786.80255127	2.15686274
786.80664063	2.15686274
786.81085205	2.13725495
786.81085205	2.13725495
786.81506348	2.13725495
786.81903076	2.13725495
786.82305908	2.13725495
786.82305908	2.13725495
786.82714844	2.13725495
786.83135986	2.13725495
786.83532715	2.13725495
786.83941650	2.13725495
786.83941650	2.13725495
786.84350586	2.13725495
786.84796143	2.15686274
786.85205078	2.15686274
786.85205078	2.15686274
786.85601807	2.17647052
786.85992432	2.17647052
786.86413574	2.19607854
786.86816406	2.19607854
786.86816406	2.21568632
786.87231445	2.23529410
786.87628174	2.23529410
786.88067627	2.25490189
786.88067627	2.27450991
786.88464355	2.27450991
786.88854980	2.29411769
786.89276123	2.31372547
786.89733887	2.33333325
786.89733887	2.33333325
786.90093994	2.35294127
786.90490723	2.37254906
786.90924072	2.37254906
786.90924072	2.39215684
786.91345215	2.41176462
786.91748047	2.43137264
786.92144775	2.43137264
786.92541504	2.45098042
786.92541504	2.45098042
786.92950439	2.47058821
786.93383789	2.49019599
786.93780518	2.49019599
786.93780518	2.50980401
786.94177246	2.50980401
786.94598389	2.52941179
786.95019531	2.52941179
786.95416260	2.54901958
786.95837402	2.54901958
786.96228027	2.56862736
786.96649170	2.56862736
786.96649170	2.56862736
786.97058105	2.56862736
786.97473145	2.58823538
786.97894287	2.58823538
786.98278809	2.58823538
786.98706055	2.58823538
786.99102783	2.58823538
786.99505615	2.58823538
786.99505615	2.58823538
786.99945068	2.58823538
787.00335693	2.58823538
787.00738525	2.58823538
787.01153564	2.58823538
787.01556396	2.58823538
787.01971436	2.56862736
787.02380371	2.56862736
787.02380371	2.56862736
787.02795410	2.54901958
787.03192139	2.54901958
787.03601074	2.54901958
787.04028320	2.52941179
787.04455566	2.52941179
787.04852295	2.50980401
787.05242920	2.50980401
787.05242920	2.50980401
787.05657959	2.49019599
787.06066895	2.49019599
787.06506348	2.47058821
787.06884766	2.45098042
787.07287598	2.45098042
787.07714844	2.45098042
787.08148193	2.43137264
787.08148193	2.43137264
787.08526611	2.41176462
787.08929443	2.41176462
787.09350586	2.39215684
787.09350586	2.39215684
787.09783936	2.37254906
787.10156250	2.37254906
787.10589600	2.35294127
787.11004639	2.35294127
787.11004639	2.35294127
787.11419678	2.33333325
787.11798096	2.33333325
787.12200928	2.31372547
787.12200928	2.31372547
787.12622070	2.29411769
787.13061523	2.29411769
787.13446045	2.27450991
787.13836670	2.27450991
787.13836670	2.25490189
787.14251709	2.25490189
787.14678955	2.23529410
787.15081787	2.23529410
787.15081787	2.21568632
787.15484619	2.21568632
787.15887451	2.19607854
787.16308594	2.19607854
787.16741943	2.17647052
787.16741943	2.17647052
787.17156982	2.15686274
787.17535400	2.15686274
787.17950439	2.15686274
787.17950439	2.13725495
787.18359375	2.13725495
787.18762207	2.11764717
787.19165039	2.11764717
787.19573975	2.11764717
787.19573975	2.09803915
787.19995117	2.09803915
787.20410156	2.09803915
787.20812988	2.07843137
787.20812988	2.07843137
787.21228027	2.05882359
787.21636963	2.05882359
787.22039795	2.05882359
787.22454834	2.03921580
787.22454834	2.03921580
787.22882080	2.03921580
787.23284912	2.01960778
787.23706055	2.01960778
787.23706055	2.00000000
787.24102783	2.00000000
787.24499512	2.00000000
787.24920654	1.98039210
787.25335693	1.98039210
787.25335693	1.98039210
787.25732422	1.96078432
787.26129150	1.96078432
787.26544189	1.94117641
787.26544189	1.94117641
787.26953125	1.94117641
787.27368164	1.92156863
787.27777100	1.92156863
787.28179932	1.90196073
787.28179932	1.90196073
787.28594971	1.88235295
787.29003906	1.88235295
787.29431152	1.88235295
787.29431152	1.86274505
787.29852295	1.86274505
787.30236816	1.86274505
787.30645752	1.86274505
787.31048584	1.84313726
787.31048584	1.84313726
787.31488037	1.84313726
787.31866455	1.84313726
787.32275391	1.84313726
787.32275391	1.84313726
787.32696533	1.84313726
787.33142090	1.84313726
787.33508301	1.86274505
787.33935547	1.86274505
787.34332275	1.88235295
787.34747314	1.88235295
787.35156250	1.90196073
787.35156250	1.92156863
787.35583496	1.92156863
787.35992432	1.94117641
787.36395264	1.96078432
787.36798096	1.98039210
787.37188721	2.00000000
787.37615967	2.01960778
787.38055420	2.03921580
787.38055420	2.05882359
